# time d(t)
1.000000000000000021e-02 9.987172970719142562e-01
2.074363992172211651e-02 9.944908936333963778e-01
3.148727984344423109e-02 9.873468292638906130e-01
4.223091976516634566e-02 9.773408211322757166e-01
5.297455968688846023e-02 9.645502834579731122e-01
6.371819960861056786e-02 9.490731165135251057e-01
7.446183953033268244e-02 9.310262022344757415e-01
8.520547945205479701e-02 9.105436482317230684e-01
9.594911937377691158e-02 8.877748275478343221e-01
1.066927592954990262e-01 8.628822650404743833e-01
1.174363992172211407e-01 8.360394227417025093e-01
1.281800391389432692e-01 8.074284359740927508e-01
1.389236790606653837e-01 7.772378495535817722e-01
1.496673189823874983e-01 7.456603993187361779e-01
1.604109589041096129e-01 7.128908788158621057e-01
1.711545988258317275e-01 6.791241246097253770e-01
1.818982387475538420e-01 6.445531467769826106e-01
1.926418786692759566e-01 6.093674240696179689e-01
2.033855185909980712e-01 5.737513763787803756e-01
2.141291585127201857e-01 5.378830208077580721e-01
2.248727984344423003e-01 5.019328121333147541e-01
2.356164383561644149e-01 4.660626638767519370e-01
2.463600782778865295e-01 4.304251427159735410e-01
2.571037181996086440e-01 3.951628265607639579e-01
2.678473581213307586e-01 3.604078152221227849e-01
2.785909980430528732e-01 3.262813821045351670e-01
2.893346379647749878e-01 2.928937555598716824e-01
3.000782778864971023e-01 2.603440192545734555e-01
3.108219178082192169e-01 2.287201218976518957e-01
3.215655577299413315e-01 1.980989877431119373e-01
3.323091976516634460e-01 1.685467202285957089e-01
3.430528375733855606e-01 1.401188917930316913e-01
3.537964774951076752e-01 1.128609132292926615e-01
3.645401174168297898e-01 8.680847582697497067e-02
3.752837573385519043e-01 6.198805905381409714e-02
3.860273972602740189e-01 3.841749567112950209e-02
3.967710371819961335e-01 1.610658508082661589e-02
4.075146771037182480e-01 -4.942255508034834252e-03
4.182583170254403626e-01 -2.473331367542053183e-02
4.290019569471624772e-01 -4.327689070855633008e-02
4.397455968688845918e-01 -6.058861004202343442e-02
4.504892367906067063e-01 -7.668873860423179589e-02
4.612328767123288209e-01 -9.160153409879639996e-02
4.719765166340509355e-01 -1.053546303095559827e-01
4.827201565557730500e-01 -1.179784709969300821e-01
4.934637964774951646e-01 -1.295058008992908405e-01
5.042074363992172792e-01 -1.399712198564425081e-01
5.149510763209393938e-01 -1.494108032589746005e-01
5.256947162426615083e-01 -1.578617890489860121e-01
5.364383561643836229e-01 -1.653623285211027749e-01
5.471819960861057375e-01 -1.719512953673166533e-01
5.579256360078278520e-01 -1.776681449352370268e-01
5.686692759295499666e-01 -1.825528136670700741e-01
5.794129158512720812e-01 -1.866456472667376298e-01
5.901565557729941958e-01 -1.899873453794242995e-01
6.009001956947163103e-01 -1.926189104953762721e-01
6.116438356164384249e-01 -1.945815894000443580e-01
6.223874755381605395e-01 -1.959167967376680697e-01
6.331311154598826541e-01 -1.966660120512158938e-01
6.438747553816047686e-01 -1.968706438950132975e-01
6.546183953033268832e-01 -1.965718571528704828e-01
6.653620352250489978e-01 -1.958103623874395960e-01
6.761056751467711123e-01 -1.946261687465178913e-01
6.868493150684932269e-01 -1.930583045160374767e-01
6.975929549902153415e-01 -1.911445117089613233e-01
7.083365949119374561e-01 -1.889209230068207845e-01
7.190802348336595706e-01 -1.864217308447447263e-01
7.298238747553816852e-01 -1.836788593991336982e-01
7.405675146771037998e-01 -1.807216506770215891e-01
7.513111545988259143e-01 -1.775765758239071235e-01
7.620547945205480289e-01 -1.742669821948087394e-01
7.727984344422701435e-01 -1.708128857259342548e-01
7.835420743639922581e-01 -1.672308167730948703e-01
7.942857142857143726e-01 -1.635337259306899327e-01
8.050293542074364872e-01 -1.597309545003115783e-01
8.157729941291586018e-01 -1.558282723296390837e-01
8.265166340508807163e-01 -1.518279837746594474e-01
8.372602739726028309e-01 -1.477291006272576368e-01
8.480039138943249455e-01 -1.435275790603870172e-01
8.587475538160470601e-01 -1.392166160257115037e-01
8.694911937377691746e-01 -1.347869991312547200e-01
8.802348336594912892e-01 -1.302275028530453238e-01
8.909784735812134038e-01 -1.255253230063431147e-01
9.017221135029355183e-01 -1.206665407193460160e-01
9.124657534246576329e-01 -1.156366067072691073e-01
9.232093933463797475e-01 -1.104208364230298833e-01
9.339530332681018621e-01 -1.050049066441395285e-01
9.446966731898239766e-01 -9.937534422352992114e-02
9.554403131115460912e-01 -9.351999806445260299e-02
9.661839530332682058e-01 -8.742848585682831686e-02
9.769275929549903204e-01 -8.109260771685032620e-02
9.876712328767124349e-01 -7.450671958769461423e-02
9.984148727984345495e-01 -6.766806007324777106e-02
1.009158512720156553e+00 -6.057702527667454401e-02
1.019902152641878779e+00 -5.323738719000255248e-02
1.030645792563601004e+00 -4.565645221819801536e-02
1.041389432485323008e+00 -3.784515750905190212e-02
1.052133072407045011e+00 -2.981810388457861033e-02
1.062876712328767237e+00 -2.159352531444615544e-02
1.073620352250489463e+00 -1.319319601876074895e-02
1.084363992172211466e+00 -4.642277415650606157e-03
1.095107632093933470e+00 4.030891784044008525e-03
1.105851272015655695e+00 1.279505801081136721e-02
1.116594911937377921e+00 2.161636254233552726e-02
1.127338551859099924e+00 3.045869240399766767e-02
1.138082191780821928e+00 3.928406570050614610e-02
1.148825831702544154e+00 4.805304408134764699e-02
1.159569471624266379e+00 5.672516467602646550e-02
1.170313111545988383e+00 6.525938364512164080e-02
1.181056751467710386e+00 7.361452348432150072e-02
1.191800391389432612e+00 8.174971638925554451e-02
1.202544031311154837e+00 8.962483633176460129e-02
1.213287671232876841e+00 9.720091300024627512e-02
1.224031311154598844e+00 1.044405213998461923e-01
1.234774951076321070e+00 1.113081416701893200e-01
1.245518590998043296e+00 1.177704845334006656e-01
1.256262230919765299e+00 1.237967787054451985e-01
1.267005870841487303e+00 1.293590175603728243e-01
1.277749510763209528e+00 1.344321633010604478e-01
1.288493150684931754e+00 1.389943078338995719e-01
1.299236790606653758e+00 1.430267904432267756e-01
1.309980430528375761e+00 1.465142731918660790e-01
1.320724070450097987e+00 1.494447757184243775e-01
1.331467710371820212e+00 1.518096717456098588e-01
1.342211350293542216e+00 1.536036501469150994e-01
1.352954990215264219e+00 1.548246438360554311e-01
1.363698630136986445e+00 1.554737300433816916e-01
1.374442270058708671e+00 1.555550057288516419e-01
1.385185909980430674e+00 1.550754419582697774e-01
1.395929549902152678e+00 1.540447210475183182e-01
1.406673189823874903e+00 1.524750601698253438e-01
1.417416829745597129e+00 1.503810249367726060e-01
1.428160469667319132e+00 1.477793362187554416e-01
1.438904109589041136e+00 1.446886731793462222e-01
1.449647749510763362e+00 1.411294751746791920e-01
1.460391389432485587e+00 1.371237448270873627e-01
1.471135029354207591e+00 1.326948542342746284e-01
1.481878669275929594e+00 1.278673559324134401e-01
1.492622309197651820e+00 1.226667999032832607e-01
1.503365949119374045e+00 1.171195576097949775e-01
1.514109589041096049e+00 1.112526537671086196e-01
1.524853228962818052e+00 1.050936063125011005e-01
1.535596868884540278e+00 9.867027482894477619e-02
1.546340508806262504e+00 9.201071750631359403e-02
1.557084148727984507e+00 8.514305659011195404e-02
1.567827788649706511e+00 7.809535216934447577e-02
1.578571428571428736e+00 7.089548409025671349e-02
1.589315068493150962e+00 6.357104174801264662e-02
1.600058708414872966e+00 5.614922150010026591e-02
1.610802348336594969e+00 4.865673145905183294e-02
1.621545988258317195e+00 4.111970345329736543e-02
1.632289628180039420e+00 3.356361198883562463e-02
1.643033268101761424e+00 2.601320009611648998e-02
1.653776908023483427e+00 1.849241200138394131e-02
1.664520547945205653e+00 1.102433261530300773e-02
1.675264187866927879e+00 3.631133879917747102e-03
1.686007827788649882e+00 -3.665971945774518671e-03
1.696751467710371886e+00 -1.084677195413214293e-02
1.707495107632094111e+00 -1.789208509082898871e-02
1.718238747553816337e+00 -2.478378737376366395e-02
1.728982387475538340e+00 -3.150482973303297962e-02
1.739726027397260344e+00 -3.803924841451378908e-02
1.750469667318982570e+00 -4.437216794521396668e-02
1.761213307240704795e+00 -5.048979673018968994e-02
1.771956947162426799e+00 -5.637941543667618349e-02
1.782700587084148802e+00 -6.202935841867308203e-02
1.793444227005871028e+00 -6.742898854160324362e-02
1.804187866927593253e+00 -7.256866587839724825e-02
1.814931506849315257e+00 -7.743971086170785278e-02
1.825675146771037261e+00 -8.203436258800229919e-02
1.836418786692759486e+00 -8.634573307401256781e-02
1.847162426614481712e+00 -9.036775836053334565e-02
1.857906066536203715e+00 -9.409514743913015289e-02
1.868649706457925719e+00 -9.752333004058090504e-02
1.879393346379647944e+00 -1.006484043669147593e-01
1.890136986301370170e+00 -1.034670858693623879e-01
1.900880626223092174e+00 -1.059766581706887562e-01
1.911624266144814177e+00 -1.081749272012043767e-01
1.922367906066536403e+00 -1.100601795630044150e-01
1.933111545988258628e+00 -1.116311460571162845e-01
1.943855185909980632e+00 -1.128869712044941048e-01
1.954598825831702635e+00 -1.138271894661225109e-01
1.965342465753424861e+00 -1.144517087224535129e-01
1.976086105675147087e+00 -1.147608014111928670e-01
1.986829745596869090e+00 -1.147551035487029553e-01
1.997573385518591094e+00 -1.144356216780269692e-01
2.008317025440313319e+00 -1.138037476000426096e-01
2.019060665362035323e+00 -1.128612805579254086e-01
2.029804305283757326e+00 -1.116104563633570634e-01
2.040547945205479330e+00 -1.100539827800614406e-01
2.051291585127201778e+00 -1.081950803203416134e-01
2.062035225048923781e+00 -1.060375274670803669e-01
2.072778864970645785e+00 -1.035857092104210397e-01
2.083522504892367788e+00 -1.008446676878880233e-01
2.094266144814089792e+00 -9.782015364121608714e-02
2.105009784735812239e+00 -9.451867735425650840e-02
2.115753424657534243e+00 -9.094755771494540675e-02
2.126497064579256246e+00 -8.711496805076186789e-02
2.137240704500978694e+00 -8.302997742102054268e-02
2.147984344422700698e+00 -7.870258610975731928e-02
2.158727984344422701e+00 -7.414375414834557809e-02
2.169471624266144705e+00 -6.936542180524979395e-02
2.180215264187866708e+00 -6.438052110895353675e-02
2.190958904109589156e+00 -5.920297761618491250e-02
2.201702544031311160e+00 -5.384770179789671180e-02
2.212446183953033163e+00 -4.833056958659524144e-02
2.223189823874755611e+00 -4.266839180701711975e-02
2.233933463796477614e+00 -3.687887239418938257e-02
2.244677103718199618e+00 -3.098055548503512308e-02
2.255420743639921621e+00 -2.499276164843865569e-02
2.266164383561643625e+00 -1.893551369079705254e-02
2.276908023483366073e+00 -1.282945263656021066e-02
2.287651663405088076e+00 -6.695744633377578685e-03
2.298395303326810080e+00 -5.559796668926369903e-04
2.309138943248532527e+00 5.567936911010778860e-03
2.319882583170254531e+00 1.165389893617172282e-02
2.330626223091976534e+00 1.767971888279390100e-02
2.341369863013698538e+00 2.362325096408555286e-02
2.352113502935420541e+00 2.946251659543524040e-02
2.362857142857142989e+00 3.517583091208573848e-02
2.373600782778864993e+00 4.074192903246717790e-02
2.384344422700586996e+00 4.614009077646744755e-02
2.395088062622309444e+00 5.135026258384640940e-02
2.405831702544031447e+00 5.635317543036485327e-02
2.416575342465753451e+00 6.113045760640246212e-02
2.427318982387475454e+00 6.566474130312888180e-02
2.438062622309197458e+00 6.993976204280866193e-02
2.448806262230919906e+00 7.394045009061808726e-02
2.459549902152641909e+00 7.765301309346206438e-02
2.470293542074363913e+00 8.106500930475647737e-02
2.481037181996086360e+00 8.416541087105987307e-02
2.491780821917808364e+00 8.694465677499225997e-02
2.502524461839530368e+00 8.939469514730934152e-02
2.513268101761252371e+00 9.150901477771837544e-02
2.524011741682974375e+00 9.328266576755796236e-02
2.534755381604696822e+00 9.471226937648860589e-02
2.545499021526418826e+00 9.579601721871174036e-02
2.556242661448140829e+00 9.653366006095315255e-02
2.566986301369863277e+00 9.692648656369716453e-02
2.577729941291585281e+00 9.697729238829923271e-02
2.588473581213307284e+00 9.669034016515568042e-02
2.599217221135029288e+00 9.607131088178641476e-02
2.609960861056751291e+00 9.512724730433792797e-02
2.620704500978473739e+00 9.386649009168508695e-02
2.631448140900195742e+00 9.229860729815958509e-02
2.642191780821917746e+00 9.043431798927943632e-02
2.652935420743640194e+00 8.828541071511110394e-02
2.663679060665362197e+00 8.586465759857567215e-02
2.674422700587084201e+00 8.318572480168587302e-02
2.685166340508806204e+00 8.026308013197237801e-02
2.695909980430528208e+00 7.711189854483453676e-02
2.706653620352250655e+00 7.374796628579886881e-02
2.717397260273972659e+00 7.018758440022195011e-02
2.728140900195694663e+00 6.644747231724801306e-02
2.738884540117417110e+00 6.254467219019975432e-02
2.749628180039139114e+00 5.849645464726709043e-02
2.760371819960861117e+00 5.432022657453271230e-02
2.771115459882583121e+00 5.003344151811967011e-02
2.781859099804305124e+00 4.565351325358429219e-02
2.792602739726027572e+00 4.119773302864442044e-02
2.803346379647749576e+00 3.668319093996275093e-02
2.814090019569471579e+00 3.212670185612301332e-02
2.824833659491194027e+00 2.754473624736171120e-02
2.835577299412916030e+00 2.295335622840653095e-02
2.846320939334638034e+00 1.836815706444143437e-02
2.857064579256360037e+00 1.380421433244088426e-02
2.867808219178082041e+00 9.276036871696336297e-03
2.878551859099804489e+00 4.797525599225888927e-03
2.889295499021526492e+00 3.819382088901060739e-04
2.900039138943248496e+00 -3.958140281590249998e-03
2.910782778864970943e+00 -8.210821222986398535e-03
2.921526418786692947e+00 -1.236493040112185762e-02
2.932270058708414950e+00 -1.641002065555191222e-02
2.943013698630136954e+00 -2.033637926655805853e-02
2.953757338551858957e+00 -2.413503036010787237e-02
2.964500978473581405e+00 -2.779773260927928535e-02
2.975244618395303409e+00 -3.131697253537966269e-02
2.985988258317025412e+00 -3.468595373325255443e-02
2.996731898238747860e+00 -3.789858236381068307e-02
3.007475538160469863e+00 -4.094944927343567576e-02
3.018219178082191867e+00 -4.383380911514863504e-02
3.028962818003913871e+00 -4.654755686082698296e-02
3.039706457925635874e+00 -4.908720210731880307e-02
3.050450097847358322e+00 -5.144984159183730449e-02
3.061193737769080325e+00 -5.363313034284211689e-02
3.071937377690802329e+00 -5.563525190075351706e-02
3.082681017612524776e+00 -5.745488804695320778e-02
3.093424657534246780e+00 -5.909118847816607206e-02
3.104168297455968784e+00 -6.054374085496259938e-02
3.114911937377690787e+00 -6.181254163643720712e-02
3.125655577299412791e+00 -6.289796808710583498e-02
3.136399217221135238e+00 -6.380075180621817832e-02
3.147142857142857242e+00 -6.452195408416326605e-02
3.157886497064579245e+00 -6.506294333633354243e-02
3.168630136986301693e+00 -6.542537480334750799e-02
3.179373776908023697e+00 -6.561117264024221574e-02
3.190117416829745700e+00 -6.562251444902716946e-02
3.200861056751467704e+00 -6.546181824209330868e-02
3.211604696673189707e+00 -6.513173176175462986e-02
3.222348336594912155e+00 -6.463512402681576008e-02
3.233091976516634158e+00 -6.397507893319079320e-02
3.243835616438356162e+00 -6.315489070415214456e-02
3.254579256360078610e+00 -6.217806096768665330e-02
3.265322896281800613e+00 -6.104829723349114445e-02
3.276066536203522617e+00 -5.976951254900089716e-02
3.286810176125244620e+00 -5.834582613008641033e-02
3.297553816046966624e+00 -5.678156478436981874e-02
3.308297455968689071e+00 -5.508126496960757262e-02
3.319041095890411075e+00 -5.324967535215036074e-02
3.329784735812133079e+00 -5.129175974723541170e-02
3.340528375733855526e+00 -4.921270033052490417e-02
3.351272015655577530e+00 -4.701790100664521993e-02
3.362015655577299533e+00 -4.471299080461001163e-02
3.372759295499021537e+00 -4.230382714255263160e-02
3.383502935420743540e+00 -3.979649876731764652e-02
3.394246575342465988e+00 -3.719732813182875103e-02
3.404990215264187992e+00 -3.451287292952415903e-02
3.415733855185909995e+00 -3.174992646607233820e-02
3.426477495107632443e+00 -2.891551651980067347e-02
3.437221135029354446e+00 -2.601690232913309378e-02
3.447964774951076450e+00 -2.306156935221791854e-02
3.458708414872798453e+00 -2.005722147374228853e-02
3.469452054794520457e+00 -1.701177038754980719e-02
3.480195694716242905e+00 -1.393332195991322728e-02
3.490939334637964908e+00 -1.083015947363739559e-02
3.501682974559686912e+00 -7.710723762026677926e-03
3.512426614481409359e+00 -4.583590356924484993e-03
3.523170254403131363e+00 -1.457443888161876182e-03
3.533913894324853366e+00 1.658949925863587894e-03
3.544657534246575370e+00 4.756774273380304577e-03
3.555401174168297374e+00 7.827192749788819751e-03
3.566144814090019821e+00 1.086138185689560463e-02
3.576888454011741825e+00 1.385056400145734910e-02
3.587632093933463828e+00 1.678604053403363883e-02
3.598375733855186276e+00 1.965922443903643860e-02
3.609119373776908279e+00 2.246167237995401467e-02
3.619863013698630283e+00 2.518511591123361731e-02
3.630606653620352287e+00 2.782149177985423702e-02
3.641350293542074290e+00 3.036297134410924359e-02
3.652093933463796738e+00 3.280198922376133946e-02
3.662837573385518741e+00 3.513127135511696225e-02
3.673581213307240745e+00 3.734386264966949726e-02
3.684324853228963192e+00 3.943315444182765583e-02
3.695068493150685196e+00 4.139291185965927877e-02
3.705812133072407200e+00 4.321730116608722694e-02
3.716555772994129203e+00 4.490091700386113910e-02
3.727299412915851207e+00 4.643880934624223383e-02
3.738043052837573654e+00 4.782650981934574025e-02
3.748786692759295658e+00 4.906005693525844480e-02
3.759530332681017661e+00 5.013601967105793533e-02
3.770273972602740109e+00 5.105151875990513594e-02
3.781017612524462113e+00 5.180424503600966624e-02
3.791761252446184116e+00 5.239247420129489879e-02
3.802504892367906120e+00 5.281507745942905924e-02
3.813248532289628123e+00 5.307152758921440672e-02
3.823992172211350571e+00 5.316190019615161383e-02
3.834735812133072574e+00 5.308687007631120863e-02
3.845479452054794578e+00 5.284770283525848378e-02
3.856223091976517026e+00 5.244624210972657907e-02
3.866966731898239029e+00 5.188489292368178574e-02
3.877710371819961033e+00 5.116660185731689015e-02
3.888454011741683036e+00 5.029483480404377954e-02
3.899197651663405040e+00 4.927355312754341105e-02
3.909941291585127487e+00 4.810718900420889871e-02
3.920684931506849491e+00 4.680062064734644145e-02
3.931428571428571495e+00 4.535914796534483429e-02
3.942172211350293942e+00 4.378846901891433191e-02
3.952915851272015946e+00 4.209465742879817118e-02
3.963659491193737949e+00 4.028414066427655343e-02
3.974403131115459953e+00 3.836367893456937156e-02
3.985146771037181956e+00 3.634034422950706278e-02
3.995890410958904404e+00 3.422149892962790541e-02
4.006634050880626852e+00 3.201477334214651582e-02
4.017377690802348411e+00 2.972804152554452822e-02
4.028121330724070859e+00 2.736939484322364544e-02
4.038864970645792418e+00 2.494711283056905149e-02
4.049608610567514866e+00 2.246963115858205060e-02
4.060352250489237314e+00 1.994550671439898615e-02
4.071095890410958873e+00 1.738338007397099289e-02
4.081839530332681321e+00 1.479193589235663908e-02
4.092583170254403768e+00 1.217986195965472043e-02
4.103326810176125328e+00 9.555807844692254874e-03
4.114070450097847775e+00 6.928344157098164681e-03
4.124814090019569335e+00 4.305923489626542998e-03
4.135557729941291782e+00 1.696844051404177009e-03
4.146301369863014230e+00 -8.907831288138605376e-04
4.157045009784735790e+00 -3.449062753251329935e-03
4.167788649706458237e+00 -5.970339142225600075e-03
4.178532289628179797e+00 -8.447215334365435618e-03
4.189275929549902244e+00 -1.087256758157733975e-02
4.200019569471624692e+00 -1.323955571105778911e-02
4.210763209393346251e+00 -1.554163007830993912e-02
4.221506849315068699e+00 -1.777253602614490419e-02
4.232250489236791147e+00 -1.992631687831538864e-02
4.242994129158512706e+00 -2.199731652249800953e-02
