# time d(t)
1.000000000000000021e-02 9.999403013206130675e-01
2.074363992172211651e-02 9.997431430813730202e-01
3.148727984344423109e-02 9.994082777169749354e-01
4.223091976516634566e-02 9.989358454377949004e-01
5.297455968688846023e-02 9.983260439560874833e-01
6.371819960861056786e-02 9.975791283028603296e-01
7.446183953033268244e-02 9.966954105919222373e-01
8.520547945205479701e-02 9.956752597315243758e-01
9.594911937377691158e-02 9.945191010841087920e-01
1.066927592954990262e-01 9.932274160747615044e-01
1.174363992172211407e-01 9.918007417490647404e-01
1.281800391389432692e-01 9.902396702811236961e-01
1.389236790606653837e-01 9.885448484326312402e-01
1.496673189823874983e-01 9.867169769639139165e-01
1.604109589041096129e-01 9.847568099979827627e-01
1.711545988258317275e-01 9.826651543386915044e-01
1.818982387475538420e-01 9.804428687441701928e-01
1.926418786692759566e-01 9.780908631567842848e-01
2.033855185909980712e-01 9.756100978909235666e-01
2.141291585127201857e-01 9.730015827799955996e-01
2.248727984344423003e-01 9.702663762840558759e-01
2.356164383561644149e-01 9.674055845595601610e-01
2.463600782778865295e-01 9.644203604927773510e-01
2.571037181996086440e-01 9.613119026984449089e-01
2.678473581213307586e-01 9.580814544852983561e-01
2.785909980430528732e-01 9.547303027901330452e-01
2.893346379647749878e-01 9.512597770821046295e-01
3.000782778864971023e-01 9.476712482389884062e-01
3.108219178082192169e-01 9.439661273971572397e-01
3.215655577299413315e-01 9.401458647770472021e-01
3.323091976516634460e-01 9.362119484859023899e-01
3.430528375733855606e-01 9.321659032995985861e-01
3.537964774951076752e-01 9.280092894253554325e-01
3.645401174168297898e-01 9.237437012471478859e-01
3.752837573385519043e-01 9.193707660556258432e-01
3.860273972602740189e-01 9.148921427643468274e-01
3.967710371819961335e-01 9.103095206141180729e-01
4.075146771037182480e-01 9.056246178672263669e-01
4.182583170254403626e-01 9.008391804933231217e-01
4.290019569471624772e-01 8.959549808487036193e-01
4.397455968688845918e-01 8.909738163507038289e-01
4.504892367906067063e-01 8.858975081489007808e-01
4.612328767123288209e-01 8.807278997947793897e-01
4.719765166340509355e-01 8.754668559114888726e-01
4.827201565557730500e-01 8.701162608652782682e-01
4.934637964774951646e-01 8.646780174401589303e-01
5.042074363992172792e-01 8.591540455173012347e-01
5.149510763209393938e-01 8.535462807606265523e-01
5.256947162426615083e-01 8.478566733100095787e-01
5.364383561643836229e-01 8.420871864834597043e-01
5.471819960861057375e-01 8.362397954895959273e-01
5.579256360078278520e-01 8.303164861516816320e-01
5.686692759295499666e-01 8.243192536444318153e-01
5.794129158512720812e-01 8.182501012447496169e-01
5.901565557729941958e-01 8.121110390974976001e-01
6.009001956947163103e-01 8.059040829973479481e-01
6.116438356164384249e-01 7.996312531877098895e-01
6.223874755381605395e-01 7.932945731776620546e-01
6.331311154598826541e-01 7.868960685777747210e-01
6.438747553816047686e-01 7.804377659556428481e-01
6.546183953033268832e-01 7.739216917118958428e-01
6.653620352250489978e-01 7.673498709773954873e-01
6.761056751467711123e-01 7.607243265322787273e-01
6.868493150684932269e-01 7.540470777474443942e-01
6.975929549902153415e-01 7.473201395490346455e-01
7.083365949119374561e-01 7.405455214064022851e-01
7.190802348336595706e-01 7.337252263440111610e-01
7.298238747553816852e-01 7.268612499776609948e-01
7.405675146771037998e-01 7.199555795753791454e-01
7.513111545988259143e-01 7.130101931432788476e-01
7.620547945205480289e-01 7.060270585366327234e-01
7.727984344422701435e-01 6.990081325963670711e-01
7.835420743639922581e-01 6.919553603111385787e-01
7.942857142857143726e-01 6.848706740051181407e-01
8.050293542074364872e-01 6.777559925515600492e-01
8.157729941291586018e-01 6.706132206122032979e-01
8.265166340508807163e-01 6.634442479025092210e-01
8.372602739726028309e-01 6.562509484827153683e-01
8.480039138943249455e-01 6.490351800746388955e-01
8.587475538160470601e-01 6.417987834041473105e-01
8.694911937377691746e-01 6.345435815691728987e-01
8.802348336594912892e-01 6.272713794331281623e-01
8.909784735812134038e-01 6.199839630435511895e-01
9.017221135029355183e-01 6.126830990757843320e-01
9.124657534246576329e-01 6.053705343014730289e-01
9.232093933463797475e-01 5.980479950816450785e-01
9.339530332681018621e-01 5.907171868841163409e-01
9.446966731898239766e-01 5.833797938249505322e-01
9.554403131115460912e-01 5.760374782336827870e-01
9.661839530332682058e-01 5.686918802420060093e-01
9.769275929549903204e-01 5.613446173956043728e-01
9.876712328767124349e-01 5.539972842888057913e-01
9.984148727984345495e-01 5.466514522217158500e-01
1.009158512720156553e+00 5.393086688794872519e-01
1.019902152641878779e+00 5.319704580333688426e-01
1.030645792563601004e+00 5.246383192631730585e-01
1.041389432485323008e+00 5.173137277007924251e-01
1.052133072407045011e+00 5.099981337943919613e-01
1.062876712328767237e+00 5.026929630929007908e-01
1.073620352250489463e+00 4.953996160504197110e-01
1.084363992172211466e+00 4.881194678501608042e-01
1.095107632093933470e+00 4.808538682475316239e-01
1.105851272015655695e+00 4.736041414319756004e-01
1.116594911937377921e+00 4.663715859071793646e-01
1.127338551859099924e+00 4.591574743892531951e-01
1.138082191780821928e+00 4.519630537224961220e-01
1.148825831702544154e+00 4.447895448123521112e-01
1.159569471624266379e+00 4.376381425751669219e-01
1.170313111545988383e+00 4.305100159043538932e-01
1.181056751467710386e+00 4.234063076525785285e-01
1.191800391389432612e+00 4.163281346295719665e-01
1.202544031311154837e+00 4.092765876151866489e-01
1.213287671232876841e+00 4.022527313873031085e-01
1.224031311154598844e+00 3.952576047642049062e-01
1.234774951076321070e+00 3.882922206610347482e-01
1.245518590998043296e+00 3.813575661599505340e-01
1.256262230919765299e+00 3.744546025935955313e-01
1.267005870841487303e+00 3.675842656415040932e-01
1.277749510763209528e+00 3.607474654390645519e-01
1.288493150684931754e+00 3.539450866986596500e-01
1.299236790606653758e+00 3.471779888426080873e-01
1.309980430528375761e+00 3.404470061475334819e-01
1.320724070450097987e+00 3.337529478997874888e-01
1.331467710371820212e+00 3.270965985615549854e-01
1.342211350293542216e+00 3.204787179472714520e-01
1.352954990215264219e+00 3.139000414099838432e-01
1.363698630136986445e+00 3.073612800372902409e-01
1.374442270058708671e+00 3.008631208564915838e-01
1.385185909980430674e+00 2.944062270485944266e-01
1.395929549902152678e+00 2.879912381708016333e-01
1.406673189823874903e+00 2.816187703871362857e-01
1.417416829745597129e+00 2.752894167068389297e-01
1.428160469667319132e+00 2.690037472301861632e-01
1.438904109589041136e+00 2.627623094013783467e-01
1.449647749510763362e+00 2.565656282681484934e-01
1.460391389432485587e+00 2.504142067477470590e-01
1.471135029354207591e+00 2.443085258989583508e-01
1.481878669275929594e+00 2.382490451998101888e-01
1.492622309197651820e+00 2.322362028306418635e-01
1.503365949119374045e+00 2.262704159621974354e-01
1.514109589041096049e+00 2.203520810484159154e-01
1.524853228962818052e+00 2.144815741235943096e-01
1.535596868884540278e+00 2.086592511036057807e-01
1.546340508806262504e+00 2.028854480908564017e-01
1.557084148727984507e+00 1.971604816826705020e-01
1.567827788649706511e+00 1.914846492828002900e-01
1.578571428571428736e+00 1.858582294157613557e-01
1.589315068493150962e+00 1.802814820436983712e-01
1.600058708414872966e+00 1.747546488854941626e-01
1.610802348336594969e+00 1.692779537378396593e-01
1.621545988258317195e+00 1.638516027979902145e-01
1.632289628180039420e+00 1.584757849879377400e-01
1.643033268101761424e+00 1.531506722797371656e-01
1.653776908023483427e+00 1.478764200217300706e-01
1.664520547945205653e+00 1.426531672654191840e-01
1.675264187866927879e+00 1.374810370927500303e-01
1.686007827788649882e+00 1.323601369435662145e-01
1.696751467710371886e+00 1.272905589430108064e-01
1.707495107632094111e+00 1.222723802286552336e-01
1.718238747553816337e+00 1.173056632771432295e-01
1.728982387475538340e+00 1.123904562301443477e-01
1.739726027397260344e+00 1.075267932194212683e-01
1.750469667318982570e+00 1.027146946908213121e-01
1.761213307240704795e+00 9.795416772701037722e-02
1.771956947162426799e+00 9.324520636877468849e-02
1.782700587084148802e+00 8.858779193472331170e-02
1.793444227005871028e+00 8.398189333923367084e-02
1.804187866927593253e+00 7.942746740848635745e-02
1.814931506849315257e+00 7.492445919444534752e-02
1.825675146771037261e+00 7.047280228664472290e-02
1.836418786692759486e+00 6.607241912165305597e-02
1.847162426614481712e+00 6.172322129008970398e-02
1.857906066536203715e+00 5.742510984107624533e-02
1.868649706457925719e+00 5.317797558401138325e-02
1.879393346379647944e+00 4.898169938756576081e-02
1.890136986301370170e+00 4.483615247579683660e-02
1.900880626223092174e+00 4.074119672129059011e-02
1.911624266144814177e+00 3.669668493524295971e-02
1.922367906066536403e+00 3.270246115439882917e-02
1.933111545988258628e+00 2.875836092477144709e-02
1.943855185909980632e+00 2.486421158206934823e-02
1.954598825831702635e+00 2.101983252876291064e-02
1.965342465753424861e+00 1.722503550772865044e-02
1.976086105675147087e+00 1.347962487241008422e-02
1.986829745596869090e+00 9.783397853440269076e-03
1.997573385518591094e+00 6.136144821674377470e-03
2.008317025440313319e+00 2.537649547583516185e-03
2.019060665362035323e+00 -1.012310543035216392e-03
2.029804305283757326e+00 -4.513964117075656979e-03
2.040547945205479330e+00 -7.967545685905408348e-03
2.051291585127201778e+00 -1.137329536095203764e-02
2.062035225048923781e+00 -1.473145861312706584e-02
2.072778864970645785e+00 -1.804228603612158949e-02
2.083522504892367788e+00 -2.130603311360264318e-02
2.094266144814089792e+00 -2.452295999033970997e-02
2.105009784735812239e+00 -2.769333124728835804e-02
2.115753424657534243e+00 -3.081741568065632375e-02
2.126497064579256246e+00 -3.389548608497622295e-02
2.137240704500978694e+00 -3.692781904020654704e-02
2.147984344422700698e+00 -3.991469470288182969e-02
2.158727984344422701e+00 -4.285639660133384876e-02
2.169471624266144705e+00 -4.575321143499874038e-02
2.180215264187866708e+00 -4.860542887783048799e-02
2.190958904109589156e+00 -5.141334138583492086e-02
2.201702544031311160e+00 -5.417724400873900892e-02
2.212446183953033163e+00 -5.689743420581069855e-02
2.223189823874755611e+00 -5.957421166583874717e-02
2.233933463796477614e+00 -6.220787813128540733e-02
2.244677103718199618e+00 -6.479873722662152224e-02
2.255420743639921621e+00 -6.734709429085081189e-02
2.266164383561643625e+00 -6.985325621423077447e-02
2.276908023483366073e+00 -7.231753127919597623e-02
2.287651663405088076e+00 -7.474022900548513149e-02
2.298395303326810080e+00 -7.712165999947591388e-02
2.309138943248532527e+00 -7.946213580772552854e-02
2.319882583170254531e+00 -8.176196877471537949e-02
2.330626223091976534e+00 -8.402147190479654359e-02
2.341369863013698538e+00 -8.624095872832780729e-02
2.352113502935420541e+00 -8.842074317199988265e-02
2.362857142857142989e+00 -9.056113943333289618e-02
2.373600782778864993e+00 -9.266246185933463275e-02
2.384344422700586996e+00 -9.472502482930425516e-02
2.395088062622309444e+00 -9.674914264176127932e-02
2.405831702544031447e+00 -9.873512940547937711e-02
2.416575342465753451e+00 -1.006832989346017060e-01
2.427318982387475454e+00 -1.025939646478088996e-01
2.438062622309197458e+00 -1.044674394715109922e-01
2.448806262230919906e+00 -1.063040357470305119e-01
2.459549902152641909e+00 -1.081040651417392584e-01
2.470293542074363913e+00 -1.098678385641121413e-01
2.481037181996086360e+00 -1.115956660826529362e-01
2.491780821917808364e+00 -1.132878568486492266e-01
2.502524461839530368e+00 -1.149447190227068094e-01
2.513268101761252371e+00 -1.165665597050119517e-01
2.524011741682974375e+00 -1.181536848692678610e-01
2.534755381604696822e+00 -1.197063993002467214e-01
2.545499021526418826e+00 -1.212250065348970812e-01
2.556242661448140829e+00 -1.227098088069440429e-01
2.566986301369863277e+00 -1.241611069949136864e-01
2.577729941291585281e+00 -1.255792005735143213e-01
2.588473581213307284e+00 -1.269643875683030831e-01
2.599217221135029288e+00 -1.283169645135616155e-01
2.609960861056751291e+00 -1.296372264133061059e-01
2.620704500978473739e+00 -1.309254667053515175e-01
2.631448140900195742e+00 -1.321819772283488181e-01
2.642191780821917746e+00 -1.334070481917133399e-01
2.652935420743640194e+00 -1.346009681483570641e-01
2.663679060665362197e+00 -1.357640239701403129e-01
2.674422700587084201e+00 -1.368965008259539762e-01
2.685166340508806204e+00 -1.379986821623422344e-01
2.695909980430528208e+00 -1.390708496865767918e-01
2.706653620352250655e+00 -1.401132833520895848e-01
2.717397260273972659e+00 -1.411262613461734816e-01
2.728140900195694663e+00 -1.421100600798574642e-01
2.738884540117417110e+00 -1.430649541798642566e-01
2.749628180039139114e+00 -1.439912164825557783e-01
2.760371819960861117e+00 -1.448891180297771364e-01
2.771115459882583121e+00 -1.457589280665025355e-01
2.781859099804305124e+00 -1.466009140401946242e-01
2.792602739726027572e+00 -1.474153416017844054e-01
2.803346379647749576e+00 -1.482024746081820332e-01
2.814090019569471579e+00 -1.489625751262295128e-01
2.824833659491194027e+00 -1.496959034380077602e-01
2.835577299412916030e+00 -1.504027180474108993e-01
2.846320939334638034e+00 -1.510832756879046668e-01
2.857064579256360037e+00 -1.517378313313850757e-01
2.867808219178082041e+00 -1.523666381980568751e-01
2.878551859099804489e+00 -1.529699477672541719e-01
2.889295499021526492e+00 -1.535480097891249451e-01
2.900039138943248496e+00 -1.541010722971080105e-01
2.910782778864970943e+00 -1.546293816211289918e-01
2.921526418786692947e+00 -1.551331824014481331e-01
2.932270058708414950e+00 -1.556127176030925874e-01
2.943013698630136954e+00 -1.560682285308115091e-01
2.953757338551858957e+00 -1.564999548444921396e-01
2.964500978473581405e+00 -1.569081345749806788e-01
2.975244618395303409e+00 -1.572930041402529344e-01
2.985988258317025412e+00 -1.576547983618835358e-01
2.996731898238747860e+00 -1.579937504817654492e-01
3.007475538160469863e+00 -1.583100921790344118e-01
3.018219178082191867e+00 -1.586040535871560686e-01
3.028962818003913871e+00 -1.588758633111366225e-01
3.039706457925635874e+00 -1.591257484448207471e-01
3.050450097847358322e+00 -1.593539345882435121e-01
3.061193737769080325e+00 -1.595606458650060955e-01
3.071937377690802329e+00 -1.597461049396474153e-01
3.082681017612524776e+00 -1.599105330349875898e-01
3.093424657534246780e+00 -1.600541499494209929e-01
3.104168297455968784e+00 -1.601771740741392003e-01
3.114911937377690787e+00 -1.602798224102676139e-01
3.125655577299412791e+00 -1.603623105859008913e-01
3.136399217221135238e+00 -1.604248528730256862e-01
3.147142857142857242e+00 -1.604676622043200163e-01
3.157886497064579245e+00 -1.604909501898221236e-01
3.168630136986301693e+00 -1.604949271334630556e-01
3.179373776908023697e+00 -1.604798020494586364e-01
3.190117416829745700e+00 -1.604457826785581909e-01
3.200861056751467704e+00 -1.603930755041506617e-01
3.211604696673189707e+00 -1.603218857682270904e-01
3.222348336594912155e+00 -1.602324174872023499e-01
3.233091976516634158e+00 -1.601248734675994045e-01
3.243835616438356162e+00 -1.599994553215997317e-01
3.254579256360078610e+00 -1.598563634824642921e-01
3.265322896281800613e+00 -1.596957972198326248e-01
3.276066536203522617e+00 -1.595179546549038707e-01
3.286810176125244620e+00 -1.593230327755082998e-01
3.297553816046966624e+00 -1.591112274510752822e-01
3.308297455968689071e+00 -1.588827334475051700e-01
3.319041095890411075e+00 -1.586377444419527494e-01
3.329784735812133079e+00 -1.583764530375285084e-01
3.340528375733855526e+00 -1.580990507779258536e-01
3.351272015655577530e+00 -1.578057281619798524e-01
3.362015655577299533e+00 -1.574966746581649146e-01
3.372759295499021537e+00 -1.571720787190368229e-01
3.383502935420743540e+00 -1.568321277956236937e-01
3.394246575342465988e+00 -1.564770083517726673e-01
3.404990215264187992e+00 -1.561069058784534391e-01
3.415733855185909995e+00 -1.557220049080240143e-01
3.426477495107632443e+00 -1.553224890284605197e-01
3.437221135029354446e+00 -1.549085408975514611e-01
3.447964774951076450e+00 -1.544803422570585061e-01
3.458708414872798453e+00 -1.540380739468418247e-01
3.469452054794520457e+00 -1.535819159189497629e-01
3.480195694716242905e+00 -1.531120472516694364e-01
3.490939334637964908e+00 -1.526286461635351366e-01
3.501682974559686912e+00 -1.521318900272898011e-01
3.512426614481409359e+00 -1.516219553837940826e-01
3.523170254403131363e+00 -1.510990179558762414e-01
3.533913894324853366e+00 -1.505632526621148437e-01
3.544657534246575370e+00 -1.500148336305466290e-01
3.555401174168297374e+00 -1.494539342122887804e-01
3.566144814090019821e+00 -1.488807269950654377e-01
3.576888454011741825e+00 -1.482953838166276017e-01
3.587632093933463828e+00 -1.476980757780532727e-01
3.598375733855186276e+00 -1.470889732569150010e-01
3.609119373776908279e+00 -1.464682459203018317e-01
3.619863013698630283e+00 -1.458360627376800167e-01
3.630606653620352287e+00 -1.451925919935783960e-01
3.641350293542074290e+00 -1.445380013000821251e-01
3.652093933463796738e+00 -1.438724576091195695e-01
3.662837573385518741e+00 -1.431961272245249328e-01
3.673581213307240745e+00 -1.425091758138606057e-01
3.684324853228963192e+00 -1.418117684199822204e-01
3.695068493150685196e+00 -1.411040694723288691e-01
3.705812133072407200e+00 -1.403862427979216398e-01
3.716555772994129203e+00 -1.396584516320532321e-01
3.727299412915851207e+00 -1.389208586286514724e-01
3.738043052837573654e+00 -1.381736258703001041e-01
3.748786692759295658e+00 -1.374169148778994487e-01
3.759530332681017661e+00 -1.366508866199518391e-01
3.770273972602740109e+00 -1.358757015214544783e-01
3.781017612524462113e+00 -1.350915194723854573e-01
3.791761252446184116e+00 -1.342984998357675264e-01
3.802504892367906120e+00 -1.334968014552948556e-01
3.813248532289628123e+00 -1.326865826625106271e-01
3.823992172211350571e+00 -1.318680012835210247e-01
3.834735812133072574e+00 -1.310412146452347160e-01
3.845479452054794578e+00 -1.302063795811161384e-01
3.856223091976517026e+00 -1.293636524364424334e-01
3.866966731898239029e+00 -1.285131890730553950e-01
3.877710371819961033e+00 -1.276551448735990246e-01
3.888454011741683036e+00 -1.267896747452363915e-01
3.899197651663405040e+00 -1.259169331228398026e-01
3.909941291585127487e+00 -1.250370739716481217e-01
3.920684931506849491e+00 -1.241502507893889051e-01
3.931428571428571495e+00 -1.232566166078613717e-01
3.942172211350293942e+00 -1.223563239939793601e-01
3.952915851272015946e+00 -1.214495250502737461e-01
3.963659491193737949e+00 -1.205363714148545984e-01
3.974403131115459953e+00 -1.196170142608359577e-01
3.985146771037181956e+00 -1.186916042952255168e-01
3.995890410958904404e+00 -1.177602917572838082e-01
4.006634050880626852e+00 -1.168232264163585887e-01
4.017377690802348411e+00 -1.158805575692000850e-01
4.028121330724070859e+00 -1.149324340367655350e-01
4.038864970645792418e+00 -1.139790041605216603e-01
4.049608610567514866e+00 -1.130204157982536706e-01
4.060352250489237314e+00 -1.120568163193931543e-01
4.071095890410958873e+00 -1.110883525998748178e-01
4.081839530332681321e+00 -1.101151710165353403e-01
4.092583170254403768e+00 -1.091374174410680575e-01
4.103326810176125328e+00 -1.081552372335465445e-01
4.114070450097847775e+00 -1.071687752355325596e-01
4.124814090019569335e+00 -1.061781757627843076e-01
4.135557729941291782e+00 -1.051835825975797611e-01
4.146301369863014230e+00 -1.041851389806737471e-01
4.157045009784735790e+00 -1.031829876029038279e-01
4.167788649706458237e+00 -1.021772705964639483e-01
4.178532289628179797e+00 -1.011681295258641949e-01
4.189275929549902244e+00 -1.001557053785928908e-01
4.200019569471624692e+00 -9.914013855550235510e-02
4.210763209393346251e+00 -9.812156886093456598e-02
4.221506849315068699e+00 -9.710013549260662624e-02
4.232250489236791147e+00 -9.607597703127532252e-02
4.242994129158512706e+00 -9.504923143019822218e-02
