# time d(t)
1.000000000000000021e-02 9.925436578127020404e-01
2.074363992172211651e-02 9.684926754197086263e-01
3.148727984344423109e-02 9.295217416186042358e-01
4.223091976516634566e-02 8.781273895752179648e-01
5.297455968688846023e-02 8.171486232688655038e-01
6.371819960861056786e-02 7.494199417963426368e-01
7.446183953033268244e-02 6.775627072664617279e-01
8.520547945205479701e-02 6.038823365203356275e-01
9.594911937377691158e-02 5.303240990923752118e-01
1.066927592954990262e-01 4.584616767536346948e-01
1.174363992172211407e-01 3.895105969211085650e-01
1.281800391389432692e-01 3.243615765692638431e-01
1.389236790606653837e-01 2.636255175441953869e-01
1.496673189823874983e-01 2.076811655282238822e-01
1.604109589041096129e-01 1.567194107464638941e-01
1.711545988258317275e-01 1.107819958755067447e-01
1.818982387475538420e-01 6.979476770929805840e-02
1.926418786692759566e-01 3.359626980397505819e-02
2.033855185909980712e-01 1.962231095613965141e-03
2.141291585127201857e-01 -2.537381374508611634e-02
2.248727984344423003e-01 -4.870359929456311715e-02
2.356164383561644149e-01 -6.833062640116670250e-02
2.463600782778865295e-01 -8.455974163896862184e-02
2.571037181996086440e-01 -9.768948947425647178e-02
2.678473581213307586e-01 -1.080069718282161140e-01
2.785909980430528732e-01 -1.157849137928130684e-01
2.893346379647749878e-01 -1.212805129795490461e-01
3.000782778864971023e-01 -1.247355329796022705e-01
3.108219178082192169e-01 -1.263770785881124792e-01
3.215655577299413315e-01 -1.264185711693258940e-01
3.323091976516634460e-01 -1.250606164243565077e-01
3.430528375733855606e-01 -1.224916664080506756e-01
3.537964774951076752e-01 -1.188884653883628267e-01
3.645401174168297898e-01 -1.144162803034697445e-01
3.752837573385519043e-01 -1.092290313158534726e-01
3.860273972602740189e-01 -1.034694248416005574e-01
3.967710371819961335e-01 -9.726894377725643637e-02
4.075146771037182480e-01 -9.074764990045079693e-02
4.182583170254403626e-01 -8.401413359327956909e-02
4.290019569471624772e-01 -7.716567007239000242e-02
4.397455968688845918e-01 -7.028815048137197763e-02
4.504892367906067063e-01 -6.345592131833542593e-02
4.612328767123288209e-01 -5.673229794733366388e-02
4.719765166340509355e-01 -5.017058874264358065e-02
4.827201565557730500e-01 -4.381457869714486253e-02
4.934637964774951646e-01 -3.769864924035368908e-02
5.042074363992172792e-01 -3.184889766138942341e-02
5.149510763209393938e-01 -2.628508698297859700e-02
5.256947162426615083e-01 -2.102153991466051627e-02
5.364383561643836229e-01 -1.606673333009758092e-02
5.471819960861057375e-01 -1.142383137265388926e-02
5.579256360078278520e-01 -7.093045418515139290e-03
5.686692759295499666e-01 -3.073365847241156783e-03
5.794129158512720812e-01 6.383005257715626372e-04
5.901565557729941958e-01 4.048501118381014549e-03
6.009001956947163103e-01 7.165950274954598076e-03
6.116438356164384249e-01 9.998501842553466148e-03
6.223874755381605395e-01 1.255241418209021055e-02
6.331311154598826541e-01 1.483500513517138457e-02
6.438747553816047686e-01 1.685684448640285132e-02
6.546183953033268832e-01 1.863000629339811587e-02
6.653620352250489978e-01 2.016437001670643575e-02
6.761056751467711123e-01 2.146693209162255783e-02
6.868493150684932269e-01 2.254531993693291783e-02
6.975929549902153415e-01 2.341110454928641352e-02
7.083365949119374561e-01 2.407850593069601683e-02
7.190802348336595706e-01 2.455980980244463693e-02
7.298238747553816852e-01 2.486300629411369520e-02
7.405675146771037998e-01 2.499457261005866640e-02
7.513111545988259143e-01 2.496419227378617045e-02
7.620547945205480289e-01 2.478587329818734628e-02
7.727984344422701435e-01 2.447399589267695505e-02
7.835420743639922581e-01 2.403857700261412961e-02
7.942857142857143726e-01 2.348503085957109188e-02
8.050293542074364872e-01 2.281881712860445513e-02
8.157729941291586018e-01 2.205003679973799660e-02
8.265166340508807163e-01 2.119311039360296731e-02
8.372602739726028309e-01 2.026184015621740678e-02
8.480039138943249455e-01 1.926478961039162011e-02
8.587475538160470601e-01 1.820555757259523233e-02
8.694911937377691746e-01 1.708786103443415624e-02
8.802348336594912892e-01 1.592073859334998051e-02
8.909784735812134038e-01 1.471887743626999409e-02
9.017221135029355183e-01 1.349755959501053315e-02
9.124657534246576329e-01 1.226680768055340119e-02
9.232093933463797475e-01 1.102996049229253671e-02
9.339530332681018621e-01 9.787750892700286531e-03
9.446966731898239766e-01 8.544330370373618214e-03
9.554403131115460912e-01 7.310430560690918747e-03
9.661839530332682058e-01 6.101191374314425542e-03
9.769275929549903204e-01 4.930145359097424899e-03
9.876712328767124349e-01 3.803915074753102740e-03
9.984148727984345495e-01 2.721894835923740694e-03
1.009158512720156553e+00 1.681173301938434540e-03
1.019902152641878779e+00 6.825600396947549943e-04
1.030645792563601004e+00 -2.670001451635214875e-04
1.041389432485323008e+00 -1.156924150218863320e-03
1.052133072407045011e+00 -1.978046939016175811e-03
1.062876712328767237e+00 -2.726814018025002211e-03
1.073620352250489463e+00 -3.406179644741402692e-03
1.084363992172211466e+00 -4.022585622819007702e-03
1.095107632093933470e+00 -4.580782234886878433e-03
1.105851272015655695e+00 -5.080199823186667789e-03
1.116594911937377921e+00 -5.515838365178203119e-03
1.127338551859099924e+00 -5.882969770562486260e-03
1.138082191780821928e+00 -6.181676986694644056e-03
1.148825831702544154e+00 -6.417712621312749409e-03
1.159569471624266379e+00 -6.599580046573571245e-03
1.170313111545988383e+00 -6.734387556948301379e-03
1.181056751467710386e+00 -6.824937759041677272e-03
1.191800391389432612e+00 -6.869228264322858532e-03
1.202544031311154837e+00 -6.862784375381833502e-03
1.213287671232876841e+00 -6.803305537530127123e-03
1.224031311154598844e+00 -6.695156924062185128e-03
1.234774951076321070e+00 -6.550135435942257452e-03
1.245518590998043296e+00 -6.383023650833732215e-03
1.256262230919765299e+00 -6.204554138032647957e-03
1.267005870841487303e+00 -6.016614147728933243e-03
1.277749510763209528e+00 -5.812724128031208047e-03
1.288493150684931754e+00 -5.582967052329333019e-03
1.299236790606653758e+00 -5.320152674413866634e-03
1.309980430528375761e+00 -5.024426164709965524e-03
1.320724070450097987e+00 -4.705065012116797611e-03
1.331467710371820212e+00 -4.378836332572363411e-03
1.342211350293542216e+00 -4.064557939989474171e-03
1.352954990215264219e+00 -3.775267076616844499e-03
1.363698630136986445e+00 -3.512004202904099332e-03
1.374442270058708671e+00 -3.263438877390710882e-03
1.385185909980430674e+00 -3.012040952719807242e-03
1.395929549902152678e+00 -2.743121042814716457e-03
1.406673189823874903e+00 -2.451677723410432014e-03
1.417416829745597129e+00 -2.144186791869025829e-03
1.428160469667319132e+00 -1.835704492382331156e-03
1.438904109589041136e+00 -1.544437264629341944e-03
1.449647749510763362e+00 -1.285824616010023671e-03
1.460391389432485587e+00 -1.067413338389691614e-03
1.471135029354207591e+00 -8.857161334226647774e-04
1.481878669275929594e+00 -7.267505695555471134e-04
1.492622309197651820e+00 -5.713233559805528609e-04
1.503365949119374045e+00 -4.033767603178925703e-04
1.514109589041096049e+00 -2.169394991567014639e-04
1.524853228962818052e+00 -1.769394520059834383e-05
1.535596868884540278e+00 1.810471125698313757e-04
1.546340508806262504e+00 3.646689889462370886e-04
1.557084148727984507e+00 5.223308049220448104e-04
1.567827788649706511e+00 6.493901659492561963e-04
1.578571428571428736e+00 7.476729508309853511e-04
1.589315068493150962e+00 8.244067876974104118e-04
1.600058708414872966e+00 8.901176452847355328e-04
1.610802348336594969e+00 9.555561769391975437e-04
1.621545988258317195e+00 1.028136243197850771e-03
1.632289628180039420e+00 1.109152324062256815e-03
1.643033268101761424e+00 1.193500025024941871e-03
1.653776908023483427e+00 1.272771709454427729e-03
1.664520547945205653e+00 1.340263895266473977e-03
1.675264187866927879e+00 1.394475136957677025e-03
1.686007827788649882e+00 1.438562799822090503e-03
1.696751467710371886e+00 1.476640887807469668e-03
1.707495107632094111e+00 1.510287099486492960e-03
1.718238747553816337e+00 1.537739176338452727e-03
1.728982387475538340e+00 1.555478676038444304e-03
1.739726027397260344e+00 1.560323182384131631e-03
1.750469667318982570e+00 1.550730231656934034e-03
1.761213307240704795e+00 1.527302685488345253e-03
1.771956947162426799e+00 1.493001344698342446e-03
1.782700587084148802e+00 1.453232106054934848e-03
1.793444227005871028e+00 1.415489805913938909e-03
1.804187866927593253e+00 1.388068073199628114e-03
1.814931506849315257e+00 1.377537205615749329e-03
1.825675146771037261e+00 1.385325039080350686e-03
1.836418786692759486e+00 1.404825078568305895e-03
1.847162426614481712e+00 1.421284042910285223e-03
1.857906066536203715e+00 1.415936299844985881e-03
1.868649706457925719e+00 1.373153384639812843e-03
1.879393346379647944e+00 1.286848559447533163e-03
1.890136986301370170e+00 1.162727819205591718e-03
1.900880626223092174e+00 1.016058946405059595e-03
1.911624266144814177e+00 8.672375907340756744e-04
1.922367906066536403e+00 7.372893022564036298e-04
1.933111545988258628e+00 6.437944269773605279e-04
1.943855185909980632e+00 5.970267589997450657e-04
1.954598825831702635e+00 5.967959436001263199e-04
1.965342465753424861e+00 6.312020930488384694e-04
1.976086105675147087e+00 6.783007670868516741e-04
1.986829745596869090e+00 7.107737287830293059e-04
1.997573385518591094e+00 7.027046465820096805e-04
2.008317025440313319e+00 6.368090544934252965e-04
2.019060665362035323e+00 5.100593744700520705e-04
2.029804305283757326e+00 3.356749823917642896e-04
2.040547945205479330e+00 1.402168449641475064e-04
2.051291585127201778e+00 -4.373051156104047960e-05
2.062035225048923781e+00 -1.866600260626535054e-04
2.072778864970645785e+00 -2.693524270673754877e-04
2.083522504892367788e+00 -2.857929348225201108e-04
2.094266144814089792e+00 -2.422591854077578172e-04
2.105009784735812239e+00 -1.549565193270991314e-04
2.115753424657534243e+00 -4.773827314531995682e-05
2.126497064579256246e+00 5.081042130245893955e-05
2.137240704500978694e+00 1.123127846075522871e-04
2.147984344422700698e+00 1.151817879909609687e-04
2.158727984344422701e+00 5.049905897803606998e-05
2.169471624266144705e+00 -7.517536282659936970e-05
2.180215264187866708e+00 -2.409594512180921139e-04
2.190958904109589156e+00 -4.163421635215022124e-04
2.201702544031311160e+00 -5.682973887347052841e-04
2.212446183953033163e+00 -6.691542426962403126e-04
2.223189823874755611e+00 -7.031089363466155092e-04
2.233933463796477614e+00 -6.694541319209811828e-04
2.244677103718199618e+00 -5.816133794948030169e-04
2.255420743639921621e+00 -4.625156023138000581e-04
2.266164383561643625e+00 -3.381843248041785615e-04
2.276908023483366073e+00 -2.320059896029898032e-04
2.287651663405088076e+00 -1.614181549531769496e-04
2.298395303326810080e+00 -1.369977994317029407e-04
2.309138943248532527e+00 -1.624709705028444648e-04
2.319882583170254531e+00 -2.342909333879597859e-04
2.330626223091976534e+00 -3.410223637266363364e-04
2.341369863013698538e+00 -4.642105501147223323e-04
2.352113502935420541e+00 -5.820099071097759426e-04
2.362857142857142989e+00 -6.746688875159199267e-04
2.373600782778864993e+00 -7.291885538098087476e-04
2.384344422700586996e+00 -7.410754996706689921e-04
2.395088062622309444e+00 -7.133771627444339880e-04
2.405831702544031447e+00 -6.545635496822208976e-04
2.416575342465753451e+00 -5.762682994397303957e-04
2.427318982387475454e+00 -4.909247664326414238e-04
2.438062622309197458e+00 -4.094153588881530785e-04
2.448806262230919906e+00 -3.394834383072301530e-04
2.459549902152641909e+00 -2.855421795105652781e-04
2.470293542074363913e+00 -2.495881476320614386e-04
2.481037181996086360e+00 -2.322549085852541688e-04
2.491780821917808364e+00 -2.332436257555259036e-04
2.502524461839530368e+00 -2.510094702004861942e-04
2.513268101761252371e+00 -2.820902863649542422e-04
2.524011741682974375e+00 -3.207778156920079791e-04
2.534755381604696822e+00 -3.598776189745996404e-04
2.545499021526418826e+00 -3.926894099437288591e-04
2.556242661448140829e+00 -4.151741688615914099e-04
2.566986301369863277e+00 -4.266198933605851499e-04
2.577729941291585281e+00 -4.279096819448586272e-04
2.588473581213307284e+00 -4.183181124938098829e-04
2.599217221135029288e+00 -3.931481364378056715e-04
2.609960861056751291e+00 -3.442814343499004943e-04
2.620704500978473739e+00 -2.638595663133937175e-04
2.631448140900195742e+00 -1.491086445929749806e-04
2.642191780821917746e+00 -5.519137581359435970e-06
2.652935420743640194e+00 1.530953696318128527e-04
2.663679060665362197e+00 3.070397587920993022e-04
2.674422700587084201e+00 4.342576433178769557e-04
2.685166340508806204e+00 5.142978246734996673e-04
2.695909980430528208e+00 5.327017323951145069e-04
2.706653620352250655e+00 4.850371590455354880e-04
2.717397260273972659e+00 3.788448264247230683e-04
2.728140900195694663e+00 2.322794038408176691e-04
2.738884540117417110e+00 6.998154948329143431e-05
2.749628180039139114e+00 -8.198461986659116808e-05
2.760371819960861117e+00 -2.003913207522198823e-04
2.771115459882583121e+00 -2.675093127976662711e-04
2.781859099804305124e+00 -2.722260693746785063e-04
2.792602739726027572e+00 -2.100982710501729273e-04
2.803346379647749576e+00 -8.303143366161680103e-05
2.814090019569471579e+00 1.006526045093112043e-04
2.824833659491194027e+00 3.254592323958676345e-04
2.835577299412916030e+00 5.680613288462035447e-04
2.846320939334638034e+00 7.983436240262593462e-04
2.857064579256360037e+00 9.832332391776089486e-04
2.867808219178082041e+00 1.092719278770543784e-03
2.878551859099804489e+00 1.106035404263533027e-03
2.889295499021526492e+00 1.015879385175053442e-03
2.900039138943248496e+00 8.296117287556977783e-04
2.910782778864970943e+00 5.677283176678648690e-04
2.921526418786692947e+00 2.607455199348548253e-04
2.932270058708414950e+00 -5.443639909420692650e-05
2.943013698630136954e+00 -3.384611472823985953e-04
2.953757338551858957e+00 -5.542273862392485019e-04
2.964500978473581405e+00 -6.724785815946105871e-04
2.975244618395303409e+00 -6.770023589565115490e-04
2.985988258317025412e+00 -5.673983757284111569e-04
2.996731898238747860e+00 -3.584222106446374257e-04
3.007475538160469863e+00 -7.690321541688840718e-05
3.018219178082191867e+00 2.419480523549687439e-04
3.028962818003913871e+00 5.580661183538907812e-04
3.039706457925635874e+00 8.304381528519696543e-04
3.050450097847358322e+00 1.021908294531479041e-03
3.061193737769080325e+00 1.104330142473450510e-03
3.071937377690802329e+00 1.062876588990891791e-03
3.082681017612524776e+00 8.985989232237693702e-04
3.093424657534246780e+00 6.288208584689962887e-04
3.104168297455968784e+00 2.851308507170714703e-04
3.114911937377690787e+00 -9.110067630329413406e-05
3.125655577299412791e+00 -4.552037935296846145e-04
3.136399217221135238e+00 -7.663862840149653858e-04
3.147142857142857242e+00 -9.936850026136733946e-04
3.157886497064579245e+00 -1.118995824308112235e-03
3.168630136986301693e+00 -1.136808012810439344e-03
3.179373776908023697e+00 -1.051904822380390989e-03
3.190117416829745700e+00 -8.768839663313631946e-04
3.200861056751467704e+00 -6.305214823835019475e-04
3.211604696673189707e+00 -3.367857651141140823e-04
3.222348336594912155e+00 -2.376590269893021667e-05
3.233091976516634158e+00 2.780540866697669760e-04
3.243835616438356162e+00 5.383266584226421413e-04
3.254579256360078610e+00 7.298815864723925007e-04
3.265322896281800613e+00 8.316277254720434806e-04
3.276066536203522617e+00 8.307175634238785382e-04
3.286810176125244620e+00 7.239340919304558400e-04
3.297553816046966624e+00 5.187749912856393520e-04
3.308297455968689071e+00 2.343991881714439925e-04
3.319041095890411075e+00 -9.848922791498237691e-05
3.329784735812133079e+00 -4.404038319007784800e-04
3.340528375733855526e+00 -7.491200986689693000e-04
3.351272015655577530e+00 -9.875050681390185828e-04
3.362015655577299533e+00 -1.130223265108932498e-03
3.372759295499021537e+00 -1.167056865310668471e-03
3.383502935420743540e+00 -1.102546204764227314e-03
3.394246575342465988e+00 -9.530684147590758829e-04
3.404990215264187992e+00 -7.425209642312903926e-04
3.415733855185909995e+00 -4.973660499204649596e-04
3.426477495107632443e+00 -2.419461091800577531e-04
3.437221135029354446e+00 4.621217945501958595e-06
3.447964774951076450e+00 2.290439079308549924e-04
3.458708414872798453e+00 4.222974236803471253e-04
3.469452054794520457e+00 5.773683937935898377e-04
3.480195694716242905e+00 6.878312791465389679e-04
3.490939334637964908e+00 7.479607840680936419e-04
3.501682974559686912e+00 7.540665521574641331e-04
3.512426614481409359e+00 7.060443876114689274e-04
3.523170254403131363e+00 6.080509286106727937e-04
3.533913894324853366e+00 4.678881480917304104e-04
3.544657534246575370e+00 2.957259445423813127e-04
3.555401174168297374e+00 1.031860560272334959e-04
3.566144814090019821e+00 -9.687980322156576217e-05
3.576888454011741825e+00 -2.904721447427866649e-04
3.587632093933463828e+00 -4.630074106893325111e-04
3.598375733855186276e+00 -6.004545808862061552e-04
3.609119373776908279e+00 -6.908212313218000311e-04
3.619863013698630283e+00 -7.257223310818641153e-04
3.630606653620352287e+00 -7.015739219995022853e-04
3.641350293542074290e+00 -6.197846158505421806e-04
3.652093933463796738e+00 -4.857284132866624836e-04
3.662837573385518741e+00 -3.071730208290601510e-04
3.673581213307240745e+00 -9.334699646988553891e-05
3.684324853228963192e+00 1.446935371333756112e-04
3.695068493150685196e+00 3.929703602540299766e-04
3.705812133072407200e+00 6.341947244075020083e-04
3.716555772994129203e+00 8.491324992267641498e-04
3.727299412915851207e+00 1.019381240808488144e-03
3.738043052837573654e+00 1.130109153855444028e-03
3.748786692759295658e+00 1.171534850352569509e-03
3.759530332681017661e+00 1.139158172329023588e-03
3.770273972602740109e+00 1.033613300648746633e-03
3.781017612524462113e+00 8.606653121669203925e-04
3.791761252446184116e+00 6.309476762751248507e-04
3.802504892367906120e+00 3.588148975801965261e-04
3.813248532289628123e+00 6.049087464343962968e-05
3.823992172211350571e+00 -2.474506269809844620e-04
3.834735812133072574e+00 -5.483983323609123006e-04
3.845479452054794578e+00 -8.250094068207352227e-04
3.856223091976517026e+00 -1.058602748912661120e-03
3.866966731898239029e+00 -1.229644700609455223e-03
3.877710371819961033e+00 -1.319551913157287820e-03
3.888454011741683036e+00 -1.313352268343903574e-03
3.899197651663405040e+00 -1.202474652318419367e-03
3.909941291585127487e+00 -9.869083027100437628e-04
3.920684931506849491e+00 -6.761274835163160694e-04
3.931428571428571495e+00 -2.886564010308477262e-04
3.942172211350293942e+00 1.492169539751350552e-04
3.952915851272015946e+00 6.048782171907565817e-04
3.963659491193737949e+00 1.040866329201735200e-03
3.974403131115459953e+00 1.417074307424173079e-03
3.985146771037181956e+00 1.694337593435896747e-03
3.995890410958904404e+00 1.839180487098174017e-03
4.006634050880626852e+00 1.828732145198077967e-03
4.017377690802348411e+00 1.654851525261560310e-03
4.028121330724070859e+00 1.326732700501344819e-03
4.038864970645792418e+00 8.711072892693962847e-04
4.049608610567514866e+00 3.292190360994745450e-04
4.060352250489237314e+00 -2.491985027042899334e-04
4.071095890410958873e+00 -8.132308004490745000e-04
4.081839530332681321e+00 -1.317143357229028262e-03
4.092583170254403768e+00 -1.724413166447671128e-03
4.103326810176125328e+00 -2.009394805475601866e-03
4.114070450097847775e+00 -2.157407523089512752e-03
4.124814090019569335e+00 -2.164034224306070255e-03
4.135557729941291782e+00 -2.033939988316200813e-03
4.146301369863014230e+00 -1.779127241234469822e-03
4.157045009784735790e+00 -1.416712709099432260e-03
4.167788649706458237e+00 -9.669313587412629082e-04
4.178532289628179797e+00 -4.523786747945990751e-04
4.189275929549902244e+00 1.011696924400646034e-04
4.200019569471624692e+00 6.633249817166781857e-04
4.210763209393346251e+00 1.198762105168827558e-03
4.221506849315068699e+00 1.669161065875018066e-03
4.232250489236791147e+00 2.037115108857969013e-03
4.242994129158512706e+00 2.270587207811931851e-03
