# time d(t)
1.000000000000000021e-02 9.994813947320331238e-01
2.074363992172211651e-02 9.977711969682759863e-01
3.148727984344423109e-02 9.948753511601980959e-01
4.223091976516634566e-02 9.908087167988680610e-01
5.297455968688846023e-02 9.855920254281571591e-01
6.371819960861056786e-02 9.792516404909202832e-01
7.446183953033268244e-02 9.718192563555942964e-01
8.520547945205479701e-02 9.633315429573245936e-01
9.594911937377691158e-02 9.538297433534922432e-01
1.066927592954990262e-01 9.433592320784462970e-01
1.174363992172211407e-01 9.319690424921239780e-01
1.281800391389432692e-01 9.197113713745783681e-01
1.389236790606653837e-01 9.066410688581363342e-01
1.496673189823874983e-01 8.928151214532420443e-01
1.604109589041096129e-01 8.782921354574433348e-01
1.711545988258317275e-01 8.631318274813184477e-01
1.818982387475538420e-01 8.473945282163780623e-01
1.926418786692759566e-01 8.311407049358794374e-01
2.033855185909980712e-01 8.144305075789942672e-01
2.141291585127201857e-01 7.973233426327562823e-01
2.248727984344423003e-01 7.798774783989854686e-01
2.356164383561644149e-01 7.621496846150211946e-01
2.463600782778865295e-01 7.441949087857870904e-01
2.571037181996086440e-01 7.260659909787985367e-01
2.678473581213307586e-01 7.078134182333434277e-01
2.785909980430528732e-01 6.894851191429343107e-01
2.893346379647749878e-01 6.711262985917673118e-01
3.000782778864971023e-01 6.527793120691377515e-01
3.108219178082192169e-01 6.344835784598681361e-01
3.215655577299413315e-01 6.162755297235011920e-01
3.323091976516634460e-01 5.981885954393777460e-01
3.430528375733855606e-01 5.802532198163372623e-01
3.537964774951076752e-01 5.624969084501395544e-01
3.645401174168297898e-01 5.449443018619783974e-01
3.752837573385519043e-01 5.276172726685142145e-01
3.860273972602740189e-01 5.105350431165005531e-01
3.967710371819961335e-01 4.937143196605244810e-01
4.075146771037182480e-01 4.771694412665680174e-01
4.182583170254403626e-01 4.609125381822299916e-01
4.290019569471624772e-01 4.449536980211528658e-01
4.397455968688845918e-01 4.293011361589281205e-01
4.504892367906067063e-01 4.139613676247194674e-01
4.612328767123288209e-01 3.989393778912203037e-01
4.719765166340509355e-01 3.842387902094220875e-01
4.827201565557730500e-01 3.698620273980457451e-01
4.934637964774951646e-01 3.558104662744056013e-01
5.042074363992172792e-01 3.420845831980339202e-01
5.149510763209393938e-01 3.286840894848859218e-01
5.256947162426615083e-01 3.156080557330084302e-01
5.364383561643836229e-01 3.028550243752538562e-01
5.471819960861057375e-01 2.904231100366554963e-01
5.579256360078278520e-01 2.783100875197765389e-01
5.686692759295499666e-01 2.665134674677843152e-01
5.794129158512720812e-01 2.550305599599440032e-01
5.901565557729941958e-01 2.438585264761481131e-01
6.009001956947163103e-01 2.329944208250557258e-01
6.116438356164384249e-01 2.224352197640006301e-01
6.223874755381605395e-01 2.121778441480976218e-01
6.331311154598826541e-01 2.022191715313234051e-01
6.438747553816047686e-01 1.925560412045026482e-01
6.546183953033268832e-01 1.831852526950682736e-01
6.653620352250489978e-01 1.741035587723984424e-01
6.761056751467711123e-01 1.653076540018797447e-01
6.868493150684932269e-01 1.567941598722114027e-01
6.975929549902153415e-01 1.485596074856243010e-01
7.083365949119374561e-01 1.406004187515416948e-01
7.190802348336595706e-01 1.329128869627822784e-01
7.298238747553816852e-01 1.254931575617563022e-01
7.405675146771037998e-01 1.183372098243404141e-01
7.513111545988259143e-01 1.114408401032769419e-01
7.620547945205480289e-01 1.047996471830261317e-01
7.727984344422701435e-01 9.840902020586989041e-02
7.835420743639922581e-01 9.226412953645996007e-02
7.942857142857143726e-01 8.635992084050177209e-02
8.050293542074364872e-01 8.069111256427631551e-02
8.157729941291586018e-01 7.525219691647312692e-02
8.265166340508807163e-01 7.003744437341918871e-02
8.372602739726028309e-01 6.504091165415921971e-02
8.480039138943249455e-01 6.025645304374628586e-02
8.587475538160470601e-01 5.567773488215444627e-02
8.694911937377691746e-01 5.129825298290131841e-02
8.802348336594912892e-01 4.711135270009894627e-02
8.909784735812134038e-01 4.311025132541823623e-02
9.017221135029355183e-01 3.928806246739022928e-02
9.124657534246576329e-01 3.563782204448077973e-02
9.232093933463797475e-01 3.215251551021448828e-02
9.339530332681018621e-01 2.882510592292797033e-02
9.446966731898239766e-01 2.564856247402350423e-02
9.554403131115460912e-01 2.261588909629523927e-02
9.661839530332682058e-01 1.972015278737571792e-02
9.769275929549903204e-01 1.695451130189932348e-02
9.876712328767124349e-01 1.431223988888937274e-02
9.984148727984345495e-01 1.178675677742171968e-02
1.009158512720156553e+00 9.371647143091181575e-03
1.019902152641878779e+00 7.060685319530185002e-03
1.030645792563601004e+00 4.847855052564078830e-03
1.041389432485323008e+00 2.727367628938687227e-03
1.052133072407045011e+00 6.936777463859627665e-04
1.062876712328767237e+00 -1.258502973396559421e-03
1.073620352250489463e+00 -3.134194892936514529e-03
1.084363992172211466e+00 -4.938141718967971154e-03
1.095107632093933470e+00 -6.674804312607577304e-03
1.105851272015655695e+00 -8.348356917507519098e-03
1.116594911937377921e+00 -9.962685745040618379e-03
1.127338551859099924e+00 -1.152138982902958970e-02
1.138082191780821928e+00 -1.302778403841953550e-02
1.148825831702544154e+00 -1.448490411483510480e-02
1.159569471624266379e+00 -1.589551358334486547e-02
1.170313111545988383e+00 -1.726211236912417873e-02
1.181056751467710386e+00 -1.858694694017114235e-02
1.191800391389432612e+00 -1.987202178684577270e-02
1.202544031311154837e+00 -2.111911204278329665e-02
1.213287671232876841e+00 -2.232977704863938970e-02
1.224031311154598844e+00 -2.350537466006410309e-02
1.234774951076321070e+00 -2.464707610413693212e-02
1.245518590998043296e+00 -2.575588119403708631e-02
1.256262230919765299e+00 -2.683263371974215633e-02
1.267005870841487303e+00 -2.787803684277358196e-02
1.277749510763209528e+00 -2.889266833514574778e-02
1.288493150684931754e+00 -2.987699551639533269e-02
1.299236790606653758e+00 -3.083138975753586461e-02
1.309980430528375761e+00 -3.175614043664634623e-02
1.320724070450097987e+00 -3.265146824721644470e-02
1.331467710371820212e+00 -3.351753777699291448e-02
1.342211350293542216e+00 -3.435446929157932178e-02
1.352954990215264219e+00 -3.516234967313017212e-02
1.363698630136986445e+00 -3.594124247988434578e-02
1.374442270058708671e+00 -3.669119710675816659e-02
1.385185909980430674e+00 -3.741225704057552642e-02
1.395929549902152678e+00 -3.810446721558742589e-02
1.406673189823874903e+00 -3.876788048561658623e-02
1.417416829745597129e+00 -3.940256323838419589e-02
1.428160469667319132e+00 -4.000860018530030815e-02
1.438904109589041136e+00 -4.058609836624143402e-02
1.449647749510763362e+00 -4.113519041363813272e-02
1.460391389432485587e+00 -4.165603712363610128e-02
1.471135029354207591e+00 -4.214882938427617909e-02
1.481878669275929594e+00 -4.261378951170208262e-02
1.492622309197651820e+00 -4.305117204549422510e-02
1.503365949119374045e+00 -4.346126405351500438e-02
1.514109589041096049e+00 -4.384438499530186190e-02
1.524853228962818052e+00 -4.420088619123239970e-02
1.535596868884540278e+00 -4.453114994256509446e-02
1.546340508806262504e+00 -4.483558834517530761e-02
1.557084148727984507e+00 -4.511464183747115192e-02
1.567827788649706511e+00 -4.536877752068263492e-02
1.578571428571428736e+00 -4.559848728753043007e-02
1.589315068493150962e+00 -4.580428579324540700e-02
1.600058708414872966e+00 -4.598670830104625851e-02
1.610802348336594969e+00 -4.614630843250773495e-02
1.621545988258317195e+00 -4.628365585177276337e-02
1.632289628180039420e+00 -4.639933391127838008e-02
1.643033268101761424e+00 -4.649393728557454919e-02
1.653776908023483427e+00 -4.656806961890044838e-02
1.664520547945205653e+00 -4.662234121140357290e-02
1.675264187866927879e+00 -4.665736676819192547e-02
1.686007827788649882e+00 -4.667376323470467936e-02
1.696751467710371886e+00 -4.667214774107411590e-02
1.707495107632094111e+00 -4.665313567711024123e-02
1.718238747553816337e+00 -4.661733891816735587e-02
1.728982387475538340e+00 -4.656536422036410688e-02
1.739726027397260344e+00 -4.649781180138991971e-02
1.750469667318982570e+00 -4.641527412045869105e-02
1.761213307240704795e+00 -4.631833486793079935e-02
1.771956947162426799e+00 -4.620756817182778559e-02
1.782700587084148802e+00 -4.608353802503874219e-02
1.793444227005871028e+00 -4.594679793357364650e-02
1.804187866927593253e+00 -4.579789078284397102e-02
1.814931506849315257e+00 -4.563734891566659929e-02
1.825675146771037261e+00 -4.546569441247117621e-02
1.836418786692759486e+00 -4.528343956097553163e-02
1.847162426614481712e+00 -4.509108749930662574e-02
1.857906066536203715e+00 -4.488913301314102072e-02
1.868649706457925719e+00 -4.467806346393887740e-02
1.879393346379647944e+00 -4.445835982185741136e-02
1.890136986301370170e+00 -4.423049777365081064e-02
1.900880626223092174e+00 -4.399494887305979707e-02
1.911624266144814177e+00 -4.375218169914550648e-02
1.922367906066536403e+00 -4.350266298698501899e-02
1.933111545988258628e+00 -4.324685869526600362e-02
1.943855185909980632e+00 -4.298523497661790177e-02
1.954598825831702635e+00 -4.271825901886425192e-02
1.965342465753424861e+00 -4.244639972850880461e-02
1.976086105675147087e+00 -4.217012823134220351e-02
1.986829745596869090e+00 -4.188991816873065960e-02
1.997573385518591094e+00 -4.160624577165843857e-02
2.008317025440313319e+00 -4.131958969782329599e-02
2.019060665362035323e+00 -4.103043062006603292e-02
2.029804305283757326e+00 -4.073925055737564332e-02
2.040547945205479330e+00 -4.044653194295166898e-02
2.051291585127201778e+00 -4.015275642766507475e-02
2.062035225048923781e+00 -3.985840342198079117e-02
2.072778864970645785e+00 -3.956394838505914585e-02
2.083522504892367788e+00 -3.926986087618813959e-02
2.094266144814089792e+00 -3.897660239052407743e-02
2.105009784735812239e+00 -3.868462400777272769e-02
2.115753424657534243e+00 -3.839436388830042013e-02
2.126497064579256246e+00 -3.810624465564257934e-02
2.137240704500978694e+00 -3.782067070709014406e-02
2.147984344422700698e+00 -3.753802549486173756e-02
2.158727984344422701e+00 -3.725866881950931631e-02
2.169471624266144705e+00 -3.698293417512317494e-02
2.180215264187866708e+00 -3.671112618324462451e-02
2.190958904109589156e+00 -3.644351814983554788e-02
2.201702544031311160e+00 -3.618034977774035182e-02
2.212446183953033163e+00 -3.592182506609151865e-02
2.223189823874755611e+00 -3.566811042800412113e-02
2.233933463796477614e+00 -3.541933305827824757e-02
2.244677103718199618e+00 -3.517557958303214188e-02
2.255420743639921621e+00 -3.493689502245454770e-02
2.266164383561643625e+00 -3.470328209549949222e-02
2.276908023483366073e+00 -3.447470089090171746e-02
2.287651663405088076e+00 -3.425106892229509703e-02
2.298395303326810080e+00 -3.403226157683219427e-02
2.309138943248532527e+00 -3.381811295727404215e-02
2.319882583170254531e+00 -3.360841710804746835e-02
2.330626223091976534e+00 -3.340292960732018507e-02
2.341369863013698538e+00 -3.320136950062319015e-02
2.352113502935420541e+00 -3.300342154752507196e-02
2.362857142857142989e+00 -3.280873875140958434e-02
2.373600782778864993e+00 -3.261694514312905163e-02
2.384344422700586996e+00 -3.242763879135882737e-02
2.395088062622309444e+00 -3.224039501479346315e-02
2.405831702544031447e+00 -3.205476977280649620e-02
2.416575342465753451e+00 -3.187030321097618357e-02
2.427318982387475454e+00 -3.168652333551592176e-02
2.438062622309197458e+00 -3.150294978623865982e-02
2.448806262230919906e+00 -3.131909767186195209e-02
2.459549902152641909e+00 -3.113448142529636614e-02
2.470293542074363913e+00 -3.094861863133192836e-02
2.481037181996086360e+00 -3.076103377609265901e-02
2.491780821917808364e+00 -3.057126186769808587e-02
2.502524461839530368e+00 -3.037885188118009949e-02
2.513268101761252371e+00 -3.018336998764786436e-02
2.524011741682974375e+00 -2.998440253716345288e-02
2.534755381604696822e+00 -2.978155877549848105e-02
2.545499021526418826e+00 -2.957447328536465248e-02
2.556242661448140829e+00 -2.936280815137201974e-02
2.566986301369863277e+00 -2.914625485372594749e-02
2.577729941291585281e+00 -2.892453589794687779e-02
2.588473581213307284e+00 -2.869740618677455585e-02
2.599217221135029288e+00 -2.846465413666849492e-02
2.609960861056751291e+00 -2.822610253621697304e-02
2.620704500978473739e+00 -2.798160913889102125e-02
2.631448140900195742e+00 -2.773106697946758209e-02
2.642191780821917746e+00 -2.747440440331772385e-02
2.652935420743640194e+00 -2.721158480125962162e-02
2.663679060665362197e+00 -2.694260604975175569e-02
2.674422700587084201e+00 -2.666749966606557498e-02
2.685166340508806204e+00 -2.638632969936956230e-02
2.695909980430528208e+00 -2.609919138965256097e-02
2.706653620352250655e+00 -2.580620963536315801e-02
2.717397260273972659e+00 -2.550753731606453245e-02
2.728140900195694663e+00 -2.520335351737859261e-02
2.738884540117417110e+00 -2.489386170182477862e-02
2.749628180039139114e+00 -2.457928786142993260e-02
2.760371819960861117e+00 -2.425987867745647494e-02
2.771115459882583121e+00 -2.393589970100528513e-02
2.781859099804305124e+00 -2.360763355749012291e-02
2.792602739726027572e+00 -2.327537816980398619e-02
2.803346379647749576e+00 -2.293944499067859799e-02
2.814090019569471579e+00 -2.260015723487685327e-02
2.824833659491194027e+00 -2.225784810626251636e-02
2.835577299412916030e+00 -2.191285902251217596e-02
2.846320939334638034e+00 -2.156553784973802915e-02
2.857064579256360037e+00 -2.121623716869767973e-02
2.867808219178082041e+00 -2.086531260170686880e-02
2.878551859099804489e+00 -2.051312123326971826e-02
2.889295499021526492e+00 -2.016002015681260529e-02
2.900039138943248496e+00 -1.980636517451195636e-02
2.910782778864970943e+00 -1.945250966760455474e-02
2.921526418786692947e+00 -1.909880364202453523e-02
2.932270058708414950e+00 -1.874559294050285457e-02
2.943013698630136954e+00 -1.839321859939011677e-02
2.953757338551858957e+00 -1.804201631831340094e-02
2.964500978473581405e+00 -1.769231600485694778e-02
2.975244618395303409e+00 -1.734444135561227784e-02
2.985988258317025412e+00 -1.699870943926008737e-02
2.996731898238747860e+00 -1.665543025611466652e-02
3.007475538160469863e+00 -1.631490626040208586e-02
3.018219178082191867e+00 -1.597743184461069763e-02
3.028962818003913871e+00 -1.564329279754153243e-02
3.039706457925635874e+00 -1.531276575731182858e-02
3.050450097847358322e+00 -1.498611768608576304e-02
3.061193737769080325e+00 -1.466360539390492920e-02
3.071937377690802329e+00 -1.434547513462495691e-02
3.082681017612524776e+00 -1.403196228834418212e-02
3.093424657534246780e+00 -1.372329113319979005e-02
3.104168297455968784e+00 -1.341967469681122974e-02
3.114911937377690787e+00 -1.312131466593967344e-02
3.125655577299412791e+00 -1.282840132394785955e-02
3.136399217221135238e+00 -1.254111348083438576e-02
3.147142857142857242e+00 -1.225961836080739602e-02
3.157886497064579245e+00 -1.198407141765997844e-02
3.168630136986301693e+00 -1.171461605797268803e-02
3.179373776908023697e+00 -1.145138326510459180e-02
3.190117416829745700e+00 -1.119449113130119300e-02
3.200861056751467704e+00 -1.094404431907932199e-02
3.211604696673189707e+00 -1.070013348445930830e-02
3.222348336594912155e+00 -1.046283470204225491e-02
3.233091976516634158e+00 -1.023220893436345598e-02
3.243835616438356162e+00 -1.000830158507044071e-02
3.254579256360078610e+00 -9.791142167668798191e-03
3.265322896281800613e+00 -9.580744109923227184e-03
3.276066536203522617e+00 -9.377104700069327850e-03
3.286810176125244620e+00 -9.180205166666993016e-03
3.297553816046966624e+00 -8.990010871117736641e-03
3.308297455968689071e+00 -8.806471582283620370e-03
3.319041095890411075e+00 -8.629521797526386317e-03
3.329784735812133079e+00 -8.459081074485166538e-03
3.340528375733855526e+00 -8.295054342976731707e-03
3.351272015655577530e+00 -8.137332175814174576e-03
3.362015655577299533e+00 -7.985791009797262724e-03
3.372759295499021537e+00 -7.840293321934884915e-03
3.383502935420743540e+00 -7.700687779242781743e-03
3.394246575342465988e+00 -7.566809391427686132e-03
3.404990215264187992e+00 -7.438479702925602718e-03
3.415733855185909995e+00 -7.315507063120573611e-03
3.426477495107632443e+00 -7.197687010753325669e-03
3.437221135029354446e+00 -7.084802800834176170e-03
3.447964774951076450e+00 -6.976626090704902451e-03
3.458708414872798453e+00 -6.872917787672423034e-03
3.469452054794520457e+00 -6.773429045585807780e-03
3.480195694716242905e+00 -6.677902383689698386e-03
3.490939334637964908e+00 -6.586072889761467736e-03
3.501682974559686912e+00 -6.497669462309674238e-03
3.512426614481409359e+00 -6.412416044341904056e-03
3.523170254403131363e+00 -6.330032804178592834e-03
3.533913894324853366e+00 -6.250237226636296169e-03
3.544657534246575370e+00 -6.172745089684385233e-03
3.555401174168297374e+00 -6.097271315988503186e-03
3.566144814090019821e+00 -6.023530703884717036e-03
3.576888454011741825e+00 -5.951238556491406963e-03
3.587632093933463828e+00 -5.880111239183633334e-03
3.598375733855186276e+00 -5.809866703185707915e-03
3.609119373776908279e+00 -5.740225015705027398e-03
3.619863013698630283e+00 -5.670908934549176439e-03
3.630606653620352287e+00 -5.601644557855007221e-03
3.641350293542074290e+00 -5.532162068305197626e-03
3.652093933463796738e+00 -5.462196577360003448e-03
3.662837573385518741e+00 -5.391489060236404583e-03
3.673581213307240745e+00 -5.319787358367975352e-03
3.684324853228963192e+00 -5.246847214517325574e-03
3.695068493150685196e+00 -5.172433297935997640e-03
3.705812133072407200e+00 -5.096320173872856754e-03
3.716555772994129203e+00 -5.018293173677408452e-03
3.727299412915851207e+00 -4.938149128513613997e-03
3.738043052837573654e+00 -4.855696940528530549e-03
3.748786692759295658e+00 -4.770757979012087147e-03
3.759530332681017661e+00 -4.683166304129443742e-03
3.770273972602740109e+00 -4.592768735572578219e-03
3.781017612524462113e+00 -4.499424796374731049e-03
3.791761252446184116e+00 -4.403006571793631647e-03
3.802504892367906120e+00 -4.303398528587836641e-03
3.813248532289628123e+00 -4.200497340630984441e-03
3.823992172211350571e+00 -4.094211762596310263e-03
3.834735812133072574e+00 -3.984462584852983998e-03
3.845479452054794578e+00 -3.871182690669238737e-03
3.856223091976517026e+00 -3.754317222583190231e-03
3.866966731898239029e+00 -3.633823849876161201e-03
3.877710371819961033e+00 -3.509673115030749295e-03
3.888454011741683036e+00 -3.381848825355773542e-03
3.899197651663405040e+00 -3.250348447838118712e-03
3.909941291585127487e+00 -3.115183461605553362e-03
3.920684931506849491e+00 -2.976379623541750702e-03
3.931428571428571495e+00 -2.833977108468329915e-03
3.942172211350293942e+00 -2.688030495283674423e-03
3.952915851272015946e+00 -2.538608583462385535e-03
3.963659491193737949e+00 -2.385794038994391159e-03
3.974403131115459953e+00 -2.229682883624772936e-03
3.985146771037181956e+00 -2.070383854587983137e-03
3.995890410958904404e+00 -1.908017672526630872e-03
4.006634050880626852e+00 -1.742716261876470435e-03
4.017377690802348411e+00 -1.574621970050984858e-03
4.028121330724070859e+00 -1.403886829117997372e-03
4.038864970645792418e+00 -1.230671896674256352e-03
4.049608610567514866e+00 -1.055146702072565093e-03
4.060352250489237314e+00 -8.774888111586978809e-04
4.071095890410958873e+00 -6.978835085652079035e-04
4.081839530332681321e+00 -5.165235827827882424e-04
4.092583170254403768e+00 -3.336091870088573035e-04
4.103326810176125328e+00 -1.493477392901297433e-04
4.114070450097847775e+00 3.604618042680010105e-05
4.124814090019569335e+00 2.223509805486384439e-04
4.135557729941291782e+00 4.093382972238136797e-04
4.146301369863014230e+00 5.967733583530597779e-04
4.157045009784735790e+00 7.844154979742656679e-04
4.167788649706458237e+00 9.720188345043383020e-04
4.178532289628179797e+00 1.159333112595997868e-03
4.189275929549902244e+00 1.346104694388309750e-03
4.200019569471624692e+00 1.532077672946940755e-03
4.210763209393346251e+00 1.716995069894092923e-03
4.221506849315068699e+00 1.900600071631596607e-03
4.232250489236791147e+00 2.082637254939273715e-03
