# time d(t)
1.000000000000000021e-02 9.999599603458713126e-01
2.074363992172211651e-02 9.998277188294804052e-01
3.148727984344423109e-02 9.996030826720057050e-01
4.223091976516634566e-02 9.992861005266145957e-01
5.297455968688846023e-02 9.988768410389630148e-01
6.371819960861056786e-02 9.983753928237277808e-01
7.446183953033268244e-02 9.977818644343136034e-01
8.520547945205479701e-02 9.970963843257532044e-01
9.594911937377691158e-02 9.963191008108132074e-01
1.066927592954990262e-01 9.954501820093265563e-01
1.174363992172211407e-01 9.944898157907762215e-01
1.281800391389432692e-01 9.934382097101519538e-01
1.389236790606653837e-01 9.922955909371113936e-01
1.496673189823874983e-01 9.910622061784777337e-01
1.604109589041096129e-01 9.897383215941049084e-01
1.711545988258317275e-01 9.883242227061530549e-01
1.818982387475538420e-01 9.868202143018086625e-01
1.926418786692759566e-01 9.852266203294989255e-01
2.033855185909980712e-01 9.835437837886413792e-01
2.141291585127201857e-01 9.817720666129812201e-01
2.248727984344423003e-01 9.799118495475664936e-01
2.356164383561644149e-01 9.779635320194166592e-01
2.463600782778865295e-01 9.759275320019422661e-01
2.571037181996086440e-01 9.738042858731743578e-01
2.678473581213307586e-01 9.715942482678684433e-01
2.785909980430528732e-01 9.692978919235484270e-01
2.893346379647749878e-01 9.669157075205575547e-01
3.000782778864971023e-01 9.644482035161874300e-01
3.108219178082192169e-01 9.618959059729605965e-01
3.215655577299413315e-01 9.592593583811406255e-01
3.323091976516634460e-01 9.565391214755475380e-01
3.430528375733855606e-01 9.537357730467623806e-01
3.537964774951076752e-01 9.508499077468018923e-01
3.645401174168297898e-01 9.478821368893493027e-01
3.752837573385519043e-01 9.448330882446309698e-01
3.860273972602740189e-01 9.417034058290257859e-01
3.967710371819961335e-01 9.384937496895038311e-01
4.075146771037182480e-01 9.352047956829863118e-01
4.182583170254403626e-01 9.318372352507245937e-01
4.290019569471624772e-01 9.283917751877969193e-01
4.397455968688845918e-01 9.248691374078237271e-01
4.504892367906067063e-01 9.212700587030053789e-01
4.612328767123288209e-01 9.175952904995853254e-01
4.719765166340509355e-01 9.138455986088478422e-01
4.827201565557730500e-01 9.100217629737564762e-01
4.934637964774951646e-01 9.061245774113442231e-01
5.042074363992172792e-01 9.021548493509696787e-01
5.149510763209393938e-01 8.981133995685481874e-01
5.256947162426615083e-01 8.940010619168780037e-01
5.364383561643836229e-01 8.898186830521748192e-01
5.471819960861057375e-01 8.855671221569332285e-01
5.579256360078278520e-01 8.812472506592383681e-01
5.686692759295499666e-01 8.768599519486421912e-01
5.794129158512720812e-01 8.724061210887326112e-01
5.901565557729941958e-01 8.678866645265155277e-01
6.009001956947163103e-01 8.633024997987355231e-01
6.116438356164384249e-01 8.586545552352595756e-01
6.223874755381605395e-01 8.539437696596540173e-01
6.331311154598826541e-01 8.491710920870761958e-01
6.438747553816047686e-01 8.443374814196160649e-01
6.546183953033268832e-01 8.394439061392133805e-01
6.653620352250489978e-01 8.344913439982788450e-01
6.761056751467711123e-01 8.294807817081565338e-01
6.868493150684932269e-01 8.244132146255516158e-01
6.975929549902153415e-01 8.192896464370598153e-01
7.083365949119374561e-01 8.141110888419307301e-01
7.190802348336595706e-01 8.088785612331964581e-01
7.298238747553816852e-01 8.035930903772995348e-01
7.405675146771037998e-01 7.982557100923546312e-01
7.513111545988259143e-01 7.928674609251771255e-01
7.620547945205480289e-01 7.874293898272121117e-01
7.727984344422701435e-01 7.819425498294984012e-01
7.835420743639922581e-01 7.764079997168027436e-01
7.942857142857143726e-01 7.708268037010559404e-01
8.050293542074364872e-01 7.652000310942285166e-01
8.157729941291586018e-01 7.595287559807744060e-01
8.265166340508807163e-01 7.538140568897828686e-01
8.372602739726028309e-01 7.480570164669662070e-01
8.480039138943249455e-01 7.422587211466198376e-01
8.587475538160470601e-01 7.364202608236858349e-01
8.694911937377691746e-01 7.305427285260519543e-01
8.802348336594912892e-01 7.246272200872185820e-01
8.909784735812134038e-01 7.186748338194626218e-01
9.017221135029355183e-01 7.126866701876318766e-01
9.124657534246576329e-01 7.066638314836950485e-01
9.232093933463797475e-01 7.006074215021793616e-01
9.339530332681018621e-01 6.945185452166230400e-01
9.446966731898239766e-01 6.883983084571680955e-01
9.554403131115460912e-01 6.822478175894199914e-01
9.661839530332682058e-01 6.760681791947007468e-01
9.769275929549903204e-01 6.698604997518164961e-01
9.876712328767124349e-01 6.636258853204635155e-01
9.984148727984345495e-01 6.573654412263947311e-01
1.009158512720156553e+00 6.510802717484649449e-01
1.019902152641878779e+00 6.447714798076755738e-01
1.030645792563601004e+00 6.384401666583352508e-01
1.041389432485323008e+00 6.320874315814517530e-01
1.052133072407045011e+00 6.257143715804711626e-01
1.062876712328767237e+00 6.193220810794758391e-01
1.073620352250489463e+00 6.129116516239541124e-01
1.084363992172211466e+00 6.064841715842493874e-01
1.095107632093933470e+00 6.000407258617976858e-01
1.105851272015655695e+00 5.935823955982615363e-01
1.116594911937377921e+00 5.871102578876615796e-01
1.127338551859099924e+00 5.806253854916114676e-01
1.138082191780821928e+00 5.741288465577548683e-01
1.148825831702544154e+00 5.676217043415038299e-01
1.159569471624266379e+00 5.611050169311782021e-01
1.170313111545988383e+00 5.545798369766365976e-01
1.181056751467710386e+00 5.480472114214950397e-01
1.191800391389432612e+00 5.415081812390224458e-01
1.202544031311154837e+00 5.349637811718047642e-01
1.213287671232876841e+00 5.284150394752598068e-01
1.224031311154598844e+00 5.218629776650904883e-01
1.234774951076321070e+00 5.153086102687579606e-01
1.245518590998043296e+00 5.087529445810556883e-01
1.256262230919765299e+00 5.021969804238585189e-01
1.267005870841487303e+00 4.956417099101276258e-01
1.277749510763209528e+00 4.890881172122395482e-01
1.288493150684931754e+00 4.825371783347138233e-01
1.299236790606653758e+00 4.759898608914052143e-01
1.309980430528375761e+00 4.694471238872274799e-01
1.320724070450097987e+00 4.629099175044716352e-01
1.331467710371820212e+00 4.563791828937822648e-01
1.342211350293542216e+00 4.498558519698463432e-01
1.352954990215264219e+00 4.433408472118544608e-01
1.363698630136986445e+00 4.368350814687869121e-01
1.374442270058708671e+00 4.303394577695755507e-01
1.385185909980430674e+00 4.238548691381904820e-01
1.395929549902152678e+00 4.173821984136967811e-01
1.406673189823874903e+00 4.109223180753271421e-01
1.417416829745597129e+00 4.044760900726095398e-01
1.428160469667319132e+00 3.980443656605885394e-01
1.438904109589041136e+00 3.916279852401763351e-01
1.449647749510763362e+00 3.852277782036682696e-01
1.460391389432485587e+00 3.788445627854519770e-01
1.471135029354207591e+00 3.724791459179379594e-01
1.481878669275929594e+00 3.661323230927392425e-01
1.492622309197651820e+00 3.598048782271211499e-01
1.503365949119374045e+00 3.534975835357432872e-01
1.514109589041096049e+00 3.472111994077105024e-01
1.524853228962818052e+00 3.409464742889475874e-01
1.535596868884540278e+00 3.347041445699125983e-01
1.546340508806262504e+00 3.284849344786574532e-01
1.557084148727984507e+00 3.222895559792434694e-01
1.567827788649706511e+00 3.161187086755165576e-01
1.578571428571428736e+00 3.099730797202468469e-01
1.589315068493150962e+00 3.038533437296302986e-01
1.600058708414872966e+00 2.977601627031510878e-01
1.610802348336594969e+00 2.916941859487989230e-01
1.621545988258317195e+00 2.856560500136359204e-01
1.632289628180039420e+00 2.796463786197012635e-01
1.643033268101761424e+00 2.736657826052419917e-01
1.653776908023483427e+00 2.677148598712544292e-01
1.664520547945205653e+00 2.617941953333219329e-01
1.675264187866927879e+00 2.559043608787262558e-01
1.686007827788649882e+00 2.500459153288126513e-01
1.696751467710371886e+00 2.442194044065833236e-01
1.707495107632094111e+00 2.384253607094948824e-01
1.718238747553816337e+00 2.326643036874294634e-01
1.728982387475538340e+00 2.269367396258084590e-01
1.739726027397260344e+00 2.212431616338169649e-01
1.750469667318982570e+00 2.155840496377030568e-01
1.761213307240704795e+00 2.099598703791147325e-01
1.771956947162426799e+00 2.043710774184345214e-01
1.782700587084148802e+00 1.988181111430698533e-01
1.793444227005871028e+00 1.933013987806572465e-01
1.804187866927593253e+00 1.878213544171328797e-01
1.814931506849315257e+00 1.823783790196227272e-01
1.825675146771037261e+00 1.769728604641019054e-01
1.836418786692759486e+00 1.716051735677728285e-01
1.847162426614481712e+00 1.662756801261087158e-01
1.857906066536203715e+00 1.609847289545060511e-01
1.868649706457925719e+00 1.557326559344900108e-01
1.879393346379647944e+00 1.505197840644141860e-01
1.890136986301370170e+00 1.453464235145946748e-01
1.900880626223092174e+00 1.402128716868146219e-01
1.911624266144814177e+00 1.351194132781371737e-01
1.922367906066536403e+00 1.300663203489615394e-01
1.933111545988258628e+00 1.250538523952548497e-01
1.943855185909980632e+00 1.200822564248916480e-01
1.954598825831702635e+00 1.151517670380305114e-01
1.965342465753424861e+00 1.102626065114589576e-01
1.976086105675147087e+00 1.054149848868320416e-01
1.986829745596869090e+00 1.006091000627314519e-01
1.997573385518591094e+00 9.584513789047023613e-02
2.008317025440313319e+00 9.112327227356703530e-02
2.019060665362035323e+00 8.644366527081294438e-02
2.029804305283757326e+00 8.180646720285049411e-02
2.040547945205479330e+00 7.721181676218775991e-02
2.051291585127201778e+00 7.265984112656530269e-02
2.062035225048923781e+00 6.815065607559547822e-02
2.072778864970645785e+00 6.368436611058977959e-02
2.083522504892367788e+00 5.926106457749361761e-02
2.094266144814089792e+00 5.488083379284190710e-02
2.105009784735812239e+00 5.054374517265216443e-02
2.115753424657534243e+00 4.624985936416871335e-02
2.126497064579256246e+00 4.199922638037089512e-02
2.137240704500978694e+00 3.779188573716017047e-02
2.147984344422700698e+00 3.362786659313803106e-02
2.158727984344422701e+00 2.950718789188400484e-02
2.169471624266144705e+00 2.542985850664987793e-02
2.180215264187866708e+00 2.139587738737748143e-02
2.190958904109589156e+00 1.740523370995165561e-02
2.201702544031311160e+00 1.345790702760045129e-02
2.212446183953033163e+00 9.553867424348879561e-03
2.223189823874755611e+00 5.693075670440056468e-03
2.233933463796477614e+00 1.875483379631538716e-03
2.244677103718199618e+00 -1.898966831725079629e-03
2.255420743639921621e+00 -5.630341183908850466e-03
2.266164383561643625e+00 -9.318714571451294781e-03
2.276908023483366073e+00 -1.296417039924567527e-02
2.287651663405088076e+00 -1.656680041723283120e-02
2.298395303326810080e+00 -2.012670455375686895e-02
2.309138943248532527e+00 -2.364399074767800646e-02
2.319882583170254531e+00 -2.711877477933402614e-02
2.330626223091976534e+00 -3.055118010044171120e-02
2.341369863013698538e+00 -3.394133766302427635e-02
2.352113502935420541e+00 -3.728938574745817303e-02
2.362857142857142989e+00 -4.059546978972489867e-02
2.373600782778864993e+00 -4.385974220795790107e-02
2.384344422700586996e+00 -4.708236222837331592e-02
2.395088062622309444e+00 -5.026349571066970195e-02
2.405831702544031447e+00 -5.340331497298570623e-02
2.416575342465753451e+00 -5.650199861650229832e-02
2.427318982387475454e+00 -5.955973134977365219e-02
2.438062622309197458e+00 -6.257670381287314121e-02
2.448806262230919906e+00 -6.555311240143886498e-02
2.459549902152641909e+00 -6.848915909070109331e-02
2.470293542074363913e+00 -7.138505125957729514e-02
2.481037181996086360e+00 -7.424100151491330735e-02
2.491780821917808364e+00 -7.705722751595446562e-02
2.502524461839530368e+00 -7.983395179912687600e-02
2.513268101761252371e+00 -8.257140160320661226e-02
2.524011741682974375e+00 -8.526980869495733029e-02
2.534755381604696822e+00 -8.792940919531268273e-02
2.545499021526418826e+00 -9.055044340617973697e-02
2.556242661448140829e+00 -9.313315563794091756e-02
2.566986301369863277e+00 -9.567779403772577740e-02
2.577729941291585281e+00 -9.818461041852789839e-02
2.588473581213307284e+00 -1.006538600892393220e-01
2.599217221135029288e+00 -1.030858016856719128e-01
2.609960861056751291e+00 -1.054806970026364726e-01
2.620704500978473739e+00 -1.078388108271483153e-01
2.631448140900195742e+00 -1.101604107728252346e-01
2.642191780821917746e+00 -1.124457671155466021e-01
2.652935420743640194e+00 -1.146951526304349628e-01
2.663679060665362197e+00 -1.169088424302258539e-01
2.674422700587084201e+00 -1.190871138050880601e-01
2.685166340508806204e+00 -1.212302460639529122e-01
2.695909980430528208e+00 -1.233385203774148703e-01
2.706653620352250655e+00 -1.254122196222586805e-01
2.717397260273972659e+00 -1.274516282276712820e-01
2.728140900195694663e+00 -1.294570320231936411e-01
2.738884540117417110e+00 -1.314287180884656514e-01
2.749628180039139114e+00 -1.333669746048146976e-01
2.760371819960861117e+00 -1.352720907087432700e-01
2.771115459882583121e+00 -1.371443563473595806e-01
2.781859099804305124e+00 -1.389840621358020278e-01
2.792602739726027572e+00 -1.407914992167033363e-01
2.803346379647749576e+00 -1.425669591217379462e-01
2.814090019569471579e+00 -1.443107336352976167e-01
2.824833659491194027e+00 -1.460231146603352959e-01
2.835577299412916030e+00 -1.477043940864179450e-01
2.846320939334638034e+00 -1.493548636600272872e-01
2.857064579256360037e+00 -1.509748148571444792e-01
2.867808219178082041e+00 -1.525645387581554546e-01
2.878551859099804489e+00 -1.541243259251096620e-01
2.889295499021526492e+00 -1.556544662813640345e-01
2.900039138943248496e+00 -1.571552489936453856e-01
2.910782778864970943e+00 -1.586269623565574882e-01
2.921526418786692947e+00 -1.600698936795616478e-01
2.932270058708414950e+00 -1.614843291764571365e-01
2.943013698630136954e+00 -1.628705538573851919e-01
2.953757338551858957e+00 -1.642288514233793961e-01
2.964500978473581405e+00 -1.655595041634846387e-01
2.975244618395303409e+00 -1.668627928544627881e-01
2.985988258317025412e+00 -1.681389966631048616e-01
2.996731898238747860e+00 -1.693883930511653202e-01
3.007475538160469863e+00 -1.706112576829333372e-01
3.018219178082191867e+00 -1.718078643354555568e-01
3.028962818003913871e+00 -1.729784848114214735e-01
3.039706457925635874e+00 -1.741233888547218112e-01
3.050450097847358322e+00 -1.752428440686896183e-01
3.061193737769080325e+00 -1.763371158370309333e-01
3.071937377690802329e+00 -1.774064672474506277e-01
3.082681017612524776e+00 -1.784511590179791996e-01
3.093424657534246780e+00 -1.794714494260017945e-01
3.104168297455968784e+00 -1.804675942399925626e-01
3.114911937377690787e+00 -1.814398466539532406e-01
3.125655577299412791e+00 -1.823884572245555724e-01
3.136399217221135238e+00 -1.833136738109843455e-01
3.147142857142857242e+00 -1.842157415174768276e-01
3.157886497064579245e+00 -1.850949026385533547e-01
3.168630136986301693e+00 -1.859513966069327728e-01
3.179373776908023697e+00 -1.867854599441231001e-01
3.190117416829745700e+00 -1.875973262136791109e-01
3.200861056751467704e+00 -1.883872259771159352e-01
3.211604696673189707e+00 -1.891553867524657373e-01
3.222348336594912155e+00 -1.899020329754650405e-01
3.233091976516634158e+00 -1.906273859633575429e-01
3.243835616438356162e+00 -1.913316638812970483e-01
3.254579256360078610e+00 -1.920150817113323860e-01
3.265322896281800613e+00 -1.926778512239578633e-01
3.276066536203522617e+00 -1.933201809522084313e-01
3.286810176125244620e+00 -1.939422761682792484e-01
3.297553816046966624e+00 -1.945443388626488523e-01
3.308297455968689071e+00 -1.951265677256825426e-01
3.319041095890411075e+00 -1.956891581316916040e-01
3.329784735812133079e+00 -1.962323021254258337e-01
3.340528375733855526e+00 -1.967561884109704229e-01
3.351272015655577530e+00 -1.972610023430228232e-01
3.362015655577299533e+00 -1.977469259205207885e-01
3.372759295499021537e+00 -1.982141377825932249e-01
3.383502935420743540e+00 -1.986628132068034291e-01
3.394246575342465988e+00 -1.990931241096559057e-01
3.404990215264187992e+00 -1.995052390493329830e-01
3.415733855185909995e+00 -1.998993232306311429e-01
3.426477495107632443e+00 -2.002755385120635612e-01
3.437221135029354446e+00 -2.006340434150934993e-01
3.447964774951076450e+00 -2.009749931354665176e-01
3.458708414872798453e+00 -2.012985395566040392e-01
3.469452054794520457e+00 -2.016048312650236263e-01
3.480195694716242905e+00 -2.018940135677489145e-01
3.490939334637964908e+00 -2.021662285116713198e-01
3.501682974559686912e+00 -2.024216149048269631e-01
3.512426614481409359e+00 -2.026603083395488170e-01
3.523170254403131363e+00 -2.028824412174561886e-01
3.533913894324853366e+00 -2.030881427762411540e-01
3.544657534246575370e+00 -2.032775391182119473e-01
3.555401174168297374e+00 -2.034507532405539776e-01
3.566144814090019821e+00 -2.036079050672648105e-01
3.576888454011741825e+00 -2.037491114827245098e-01
3.587632093933463828e+00 -2.038744863668577600e-01
3.598375733855186276e+00 -2.039841406318458061e-01
3.609119373776908279e+00 -2.040781822603461859e-01
3.619863013698630283e+00 -2.041567163451769584e-01
3.630606653620352287e+00 -2.042198451304224616e-01
3.641350293542074290e+00 -2.042676680539165512e-01
3.652093933463796738e+00 -2.043002817910611890e-01
3.662837573385518741e+00 -2.043177802999343873e-01
3.673581213307240745e+00 -2.043202548676456010e-01
3.684324853228963192e+00 -2.043077941578926304e-01
3.695068493150685196e+00 -2.042804842596771531e-01
3.705812133072407200e+00 -2.042384087371332257e-01
3.716555772994129203e+00 -2.041816486804249875e-01
3.727299412915851207e+00 -2.041102827576691259e-01
3.738043052837573654e+00 -2.040243872678370041e-01
3.748786692759295658e+00 -2.039240361945918178e-01
3.759530332681017661e+00 -2.038093012610173727e-01
3.770273972602740109e+00 -2.036802519851924065e-01
3.781017612524462113e+00 -2.035369557365668824e-01
3.791761252446184116e+00 -2.033794777930962860e-01
3.802504892367906120e+00 -2.032078813990886024e-01
3.813248532289628123e+00 -2.030222278237209244e-01
3.823992172211350571e+00 -2.028225764201814774e-01
3.834735812133072574e+00 -2.026089846853925680e-01
3.845479452054794578e+00 -2.023815083202727405e-01
3.856223091976517026e+00 -2.021402012904925660e-01
3.866966731898239029e+00 -2.018851158876830698e-01
3.877710371819961033e+00 -2.016163027910528038e-01
3.888454011741683036e+00 -2.013338111293715704e-01
3.899197651663405040e+00 -2.010376885432786365e-01
3.909941291585127487e+00 -2.007279812478729997e-01
3.920684931506849491e+00 -2.004047340955457668e-01
3.931428571428571495e+00 -2.000679906390115947e-01
3.942172211350293942e+00 -1.997177931944999485e-01
3.952915851272015946e+00 -1.993541829050652359e-01
3.963659491193737949e+00 -1.989771998039759349e-01
3.974403131115459953e+00 -1.985868828781437168e-01
3.985146771037181956e+00 -1.981832701315527911e-01
3.995890410958904404e+00 -1.977663986486518644e-01
4.006634050880626852e+00 -1.973363046576702695e-01
4.017377690802348411e+00 -1.968930235938202433e-01
4.028121330724070859e+00 -1.964365901623492394e-01
4.038864970645792418e+00 -1.959670384014056133e-01
4.049608610567514866e+00 -1.954844017446809856e-01
4.060352250489237314e+00 -1.949887130837951732e-01
4.071095890410958873e+00 -1.944800048303874374e-01
4.081839530332681321e+00 -1.939583089778815772e-01
4.092583170254403768e+00 -1.934236571628894508e-01
4.103326810176125328e+00 -1.928760807262214494e-01
4.114070450097847775e+00 -1.923156107734703968e-01
4.124814090019569335e+00 -1.917422782351380639e-01
4.135557729941291782e+00 -1.911561139262722975e-01
4.146301369863014230e+00 -1.905571486055852026e-01
4.157045009784735790e+00 -1.899454130340217650e-01
4.167788649706458237e+00 -1.893209380327499081e-01
4.178532289628179797e+00 -1.886837545405447847e-01
4.189275929549902244e+00 -1.880338936705367725e-01
4.200019569471624692e+00 -1.873713867662993859e-01
4.210763209393346251e+00 -1.866962654572482116e-01
4.221506849315068699e+00 -1.860085617133258040e-01
4.232250489236791147e+00 -1.853083078989485877e-01
4.242994129158512706e+00 -1.845955368261898988e-01
4.253737769080235154e+00 -1.838702818071765721e-01
