# time d(t)
1.000000000000000021e-02 9.879000134280232492e-01
2.074363992172211651e-02 9.493401313618450299e-01
3.148727984344423109e-02 8.883539975498012664e-01
4.223091976516634566e-02 8.106786366819279666e-01
5.297455968688846023e-02 7.224632777035594478e-01
6.371819960861056786e-02 6.293672517630002350e-01
7.446183953033268244e-02 5.360795647161986643e-01
8.520547945205479701e-02 4.461536193177590426e-01
9.594911937377691158e-02 3.620350395839984636e-01
1.066927592954990262e-01 2.852038598371237632e-01
1.174363992172211407e-01 2.163743833049590892e-01
1.281800391389432692e-01 1.557065183998342373e-01
1.389236790606653837e-01 1.029973321619423315e-01
1.496673189823874983e-01 5.783519686970121226e-02
1.604109589041096129e-01 1.970774118016064419e-02
1.711545988258317275e-01 -1.193607317511212462e-02
1.818982387475538420e-01 -3.765916978930936715e-02
1.926418786692759566e-01 -5.802861778194130099e-02
2.033855185909980712e-01 -7.361295849059981689e-02
2.141291585127201857e-01 -8.497758833947104129e-02
2.248727984344423003e-01 -9.267731244426075099e-02
2.356164383561644149e-01 -9.724781001447836692e-02
2.463600782778865295e-01 -9.919767285186491257e-02
2.571037181996086440e-01 -9.900178162962518236e-02
2.678473581213307586e-01 -9.709620846074636102e-02
2.785909980430528732e-01 -9.387469264230079158e-02
2.893346379647749878e-01 -8.968669410586088686e-02
3.000782778864971023e-01 -8.483695404917300509e-02
3.108219178082192169e-01 -7.958635016555726249e-02
3.215655577299413315e-01 -7.415345006487870927e-02
3.323091976516634460e-01 -6.871607645851067481e-02
3.430528375733855606e-01 -6.341279799609514378e-02
3.537964774951076752e-01 -5.834425303568069321e-02
3.645401174168297898e-01 -5.357388483146201252e-02
3.752837573385519043e-01 -4.912914278656264899e-02
3.860273972602740189e-01 -4.500500926575872612e-02
3.967710371819961335e-01 -4.116912655477920208e-02
4.075146771037182480e-01 -3.756724893848342739e-02
4.182583170254403626e-01 -3.413112730423272650e-02
4.290019569471624772e-01 -3.078952747542952617e-02
4.397455968688845918e-01 -2.747746566860872694e-02
4.504892367906067063e-01 -2.414116826784904954e-02
4.612328767123288209e-01 -2.074325184409506889e-02
4.719765166340509355e-01 -1.726904329073063182e-02
4.827201565557730500e-01 -1.372716991904515682e-02
4.934637964774951646e-01 -1.014304185961478234e-02
5.042074363992172792e-01 -6.553949260703393655e-03
5.149510763209393938e-01 -3.009097333778690091e-03
5.256947162426615083e-01 4.337431623529607169e-04
5.364383561643836229e-01 3.718495280551916814e-03
5.471819960861057375e-01 6.798052099187551142e-03
5.579256360078278520e-01 9.631774901792889559e-03
5.686692759295499666e-01 1.218191135180007531e-02
5.794129158512720812e-01 1.441853679078676162e-02
5.901565557729941958e-01 1.632674329740086902e-02
6.009001956947163103e-01 1.790388439136258655e-02
6.116438356164384249e-01 1.914921895721737738e-02
6.223874755381605395e-01 2.006025694496963233e-02
6.331311154598826541e-01 2.064025013109846082e-02
6.438747553816047686e-01 2.090434447226767814e-02
6.546183953033268832e-01 2.087340580399246401e-02
6.653620352250489978e-01 2.056228722752346735e-02
6.761056751467711123e-01 1.997790468068369116e-02
6.868493150684932269e-01 1.913006425953659578e-02
6.975929549902153415e-01 1.804131382872311770e-02
7.083365949119374561e-01 1.674313972893880578e-02
7.190802348336595706e-01 1.526326097921816734e-02
7.298238747553816852e-01 1.362009476686928434e-02
7.405675146771037998e-01 1.183159768090002832e-02
7.513111545988259143e-01 9.928409056817180320e-03
7.620547945205480289e-01 7.956139379566642966e-03
7.727984344422701435e-01 5.963544402032543851e-03
7.835420743639922581e-01 3.988851122842509457e-03
7.942857142857143726e-01 2.058989742436616744e-03
8.050293542074364872e-01 2.023779450308684782e-04
8.157729941291586018e-01 -1.539519860765303913e-03
8.265166340508807163e-01 -3.115457441572033141e-03
8.372602739726028309e-01 -4.480327938113381342e-03
8.480039138943249455e-01 -5.609303988376785309e-03
8.587475538160470601e-01 -6.497795928214544943e-03
8.694911937377691746e-01 -7.147190417409412036e-03
8.802348336594912892e-01 -7.549151981656939368e-03
8.909784735812134038e-01 -7.683941260083345173e-03
9.017221135029355183e-01 -7.535687755960220752e-03
9.124657534246576329e-01 -7.110610894289963978e-03
9.232093933463797475e-01 -6.441415420477108675e-03
9.339530332681018621e-01 -5.574868083240491941e-03
9.446966731898239766e-01 -4.553416558152803724e-03
9.554403131115460912e-01 -3.403948812243036241e-03
9.661839530332682058e-01 -2.140689013877441604e-03
9.769275929549903204e-01 -7.801044193788205135e-04
9.876712328767124349e-01 6.437552476125141298e-04
9.984148727984345495e-01 2.077372752304465324e-03
1.009158512720156553e+00 3.462217896459003456e-03
1.019902152641878779e+00 4.753215488023088825e-03
1.030645792563601004e+00 5.926321362565676286e-03
1.041389432485323008e+00 6.972143548741602595e-03
1.052133072407045011e+00 7.883620114547894644e-03
1.062876712328767237e+00 8.646412635880416919e-03
1.073620352250489463e+00 9.236723122970325398e-03
1.084363992172211466e+00 9.628406778476207920e-03
1.095107632093933470e+00 9.806272225770145193e-03
1.105851272015655695e+00 9.775649354935495028e-03
1.116594911937377921e+00 9.558885027827045827e-03
1.127338551859099924e+00 9.180630442111268122e-03
1.138082191780821928e+00 8.654468112763047394e-03
1.148825831702544154e+00 7.981617638623133421e-03
1.159569471624266379e+00 7.160747321880369873e-03
1.170313111545988383e+00 6.199676183247441845e-03
1.181056751467710386e+00 5.121800307632616567e-03
1.191800391389432612e+00 3.965500855335296788e-03
1.202544031311154837e+00 2.776192630456045252e-03
1.213287671232876841e+00 1.591928765617967728e-03
1.224031311154598844e+00 4.295407645644682250e-04
1.234774951076321070e+00 -7.176068928087827150e-04
1.245518590998043296e+00 -1.865905239452584881e-03
1.256262230919765299e+00 -3.020374023957311544e-03
1.267005870841487303e+00 -4.160684851155851960e-03
1.277749510763209528e+00 -5.243075682899768671e-03
1.288493150684931754e+00 -6.215704953207041791e-03
1.299236790606653758e+00 -7.037734498211490643e-03
1.309980430528375761e+00 -7.693295172228099138e-03
1.320724070450097987e+00 -8.196561005292170993e-03
1.331467710371820212e+00 -8.586539470723079243e-03
1.342211350293542216e+00 -8.910461566335590999e-03
1.352954990215264219e+00 -9.199732100543754273e-03
1.363698630136986445e+00 -9.451033919121118801e-03
1.374442270058708671e+00 -9.625837701308091396e-03
1.385185909980430674e+00 -9.669745186202840029e-03
1.395929549902152678e+00 -9.539721920283171855e-03
1.406673189823874903e+00 -9.224382981480080956e-03
1.417416829745597129e+00 -8.749391120985378426e-03
1.428160469667319132e+00 -8.168416925842797785e-03
1.438904109589041136e+00 -7.545191204297488352e-03
1.449647749510763362e+00 -6.933667316709422705e-03
1.460391389432485587e+00 -6.361943162926132767e-03
1.471135029354207591e+00 -5.823763753639880567e-03
1.481878669275929594e+00 -5.281532552688535803e-03
1.492622309197651820e+00 -4.683482054629256944e-03
1.503365949119374045e+00 -3.989944816606403634e-03
1.514109589041096049e+00 -3.194620125111798537e-03
1.524853228962818052e+00 -2.328174138339216079e-03
1.535596868884540278e+00 -1.444208471777318594e-03
1.546340508806262504e+00 -5.985916895649461477e-04
1.557084148727984507e+00 1.669803588458030382e-04
1.567827788649706511e+00 8.332344908107928039e-04
1.578571428571428736e+00 1.404298889119752220e-03
1.589315068493150962e+00 1.902922257104758090e-03
1.600058708414872966e+00 2.361112895354025576e-03
1.610802348336594969e+00 2.808265985409651774e-03
1.621545988258317195e+00 3.259947632915713780e-03
1.632289628180039420e+00 3.710980531189844722e-03
1.643033268101761424e+00 4.136664054498162893e-03
1.653776908023483427e+00 4.504153366620309087e-03
1.664520547945205653e+00 4.789674417686560527e-03
1.675264187866927879e+00 4.990451239608455387e-03
1.686007827788649882e+00 5.122424284086759746e-03
1.696751467710371886e+00 5.206631265807066221e-03
1.707495107632094111e+00 5.255956911816041070e-03
1.718238747553816337e+00 5.270701646633047487e-03
1.728982387475538340e+00 5.242172821471056780e-03
1.739726027397260344e+00 5.158926744390312721e-03
1.750469667318982570e+00 5.012053827451682514e-03
1.761213307240704795e+00 4.798963383974589811e-03
1.771956947162426799e+00 4.526180066317988734e-03
1.782700587084148802e+00 4.210970714953104176e-03
1.793444227005871028e+00 3.880626658174182557e-03
1.804187866927593253e+00 3.568019781814614315e-03
1.814931506849315257e+00 3.302932886253723364e-03
1.825675146771037261e+00 3.100517496015695647e-03
1.836418786692759486e+00 2.950985597127528132e-03
1.847162426614481712e+00 2.817140321418986574e-03
1.857906066536203715e+00 2.644994294163510729e-03
1.868649706457925719e+00 2.385040150196002500e-03
1.879393346379647944e+00 2.012962336608619535e-03
1.890136986301370170e+00 1.538571111644877667e-03
1.900880626223092174e+00 1.001390203707208659e-03
1.911624266144814177e+00 4.594988459363679085e-04
1.922367906066536403e+00 -2.288223926490912658e-05
1.933111545988258628e+00 -3.884700718001597567e-04
1.943855185909980632e+00 -6.006176826781341963e-04
1.954598825831702635e+00 -6.546586863742731924e-04
1.965342465753424861e+00 -5.827167682895423870e-04
1.976086105675147087e+00 -4.492603912780865284e-04
1.986829745596869090e+00 -3.370554778427820031e-04
1.997573385518591094e+00 -3.260299910781028101e-04
2.008317025440313319e+00 -4.705450236170302626e-04
2.019060665362035323e+00 -7.821297962196869765e-04
2.029804305283757326e+00 -1.223895378431057559e-03
2.040547945205479330e+00 -1.719646371941074749e-03
2.051291585127201778e+00 -2.175570928158415077e-03
2.062035225048923781e+00 -2.506833734208646549e-03
2.072778864970645785e+00 -2.658676564345898146e-03
2.083522504892367788e+00 -2.614873415297412542e-03
2.094266144814089792e+00 -2.394644098723360676e-03
2.105009784735812239e+00 -2.045438624015256685e-03
2.115753424657534243e+00 -1.636656296181303880e-03
2.126497064579256246e+00 -1.251719853850337752e-03
2.137240704500978694e+00 -9.736459258477701741e-04
2.147984344422700698e+00 -8.654760491502527754e-04
2.158727984344422701e+00 -9.531374881791792155e-04
2.169471624266144705e+00 -1.217449076287305254e-03
2.180215264187866708e+00 -1.597232754312781370e-03
2.190958904109589156e+00 -2.002555017617430565e-03
2.201702544031311160e+00 -2.335710424260735007e-03
2.212446183953033163e+00 -2.515026855700971953e-03
2.223189823874755611e+00 -2.494369435951408840e-03
2.233933463796477614e+00 -2.272365110271963584e-03
2.244677103718199618e+00 -1.889235381948612671e-03
2.255420743639921621e+00 -1.413173283439712663e-03
2.266164383561643625e+00 -9.215324353029834097e-04
2.276908023483366073e+00 -4.838554824126214005e-04
2.287651663405088076e+00 -1.519291334224528295e-04
2.298395303326810080e+00 4.302917545167460968e-05
2.309138943248532527e+00 9.013818946460341300e-05
2.319882583170254531e+00 -5.581434309917794382e-07
2.330626223091976534e+00 -1.968437853621333848e-04
2.341369863013698538e+00 -4.466680634582260870e-04
2.352113502935420541e+00 -6.879824320514607572e-04
2.362857142857142989e+00 -8.641221938316311297e-04
2.373600782778864993e+00 -9.369729904493492726e-04
2.384344422700586996e+00 -8.916579577079921390e-04
2.395088062622309444e+00 -7.337861683008119239e-04
2.405831702544031447e+00 -4.843562503040862912e-04
2.416575342465753451e+00 -1.747134862260019041e-04
2.427318982387475454e+00 1.593525860785468065e-04
2.438062622309197458e+00 4.842267000655482647e-04
2.448806262230919906e+00 7.731729050288630800e-04
2.459549902152641909e+00 1.007170549269279956e-03
2.470293542074363913e+00 1.173095381513152968e-03
2.481037181996086360e+00 1.262149629502448385e-03
2.491780821917808364e+00 1.270198613532403861e-03
2.502524461839530368e+00 1.199742553441616707e-03
2.513268101761252371e+00 1.062377276112765447e-03
2.524011741682974375e+00 8.798769019031315274e-04
2.534755381604696822e+00 6.813985157689790096e-04
2.545499021526418826e+00 4.960737349456514076e-04
2.556242661448140829e+00 3.445078996318315682e-04
2.566986301369863277e+00 2.350707947658578186e-04
2.577729941291585281e+00 1.679413901799193360e-04
2.588473581213307284e+00 1.440351216781475779e-04
2.599217221135029288e+00 1.722026002235840943e-04
2.609960861056751291e+00 2.688645751103292659e-04
2.620704500978473739e+00 4.489017614811628243e-04
2.631448140900195742e+00 7.127313887355941468e-04
2.642191780821917746e+00 1.037749649282188697e-03
2.652935420743640194e+00 1.379174189178926802e-03
2.663679060665362197e+00 1.678488243932337335e-03
2.674422700587084201e+00 1.874534572901439579e-03
2.685166340508806204e+00 1.915028132341227863e-03
2.695909980430528208e+00 1.768659390814517366e-03
2.706653620352250655e+00 1.435477603669264206e-03
2.717397260273972659e+00 9.502387231509293883e-04
2.728140900195694663e+00 3.757106975332685241e-04
2.738884540117417110e+00 -2.113421730696113463e-04
2.749628180039139114e+00 -7.355572415766559961e-04
2.760371819960861117e+00 -1.134827924790543551e-03
2.771115459882583121e+00 -1.366548937959431460e-03
2.781859099804305124e+00 -1.408771479458719757e-03
2.792602739726027572e+00 -1.258277186143049895e-03
2.803346379647749576e+00 -9.280806160018849902e-04
2.814090019569471579e+00 -4.467973749843649279e-04
2.824833659491194027e+00 1.391534847158115565e-04
2.835577299412916030e+00 7.630828334241610608e-04
2.846320939334638034e+00 1.340650343368270971e-03
2.857064579256360037e+00 1.780976799118794878e-03
2.867808219178082041e+00 2.003954069361555193e-03
2.878551859099804489e+00 1.957307896001658429e-03
2.889295499021526492e+00 1.627477957807810715e-03
2.900039138943248496e+00 1.041872108230635502e-03
2.910782778864970943e+00 2.635570794077829048e-04
2.921526418786692947e+00 -6.184614321237566449e-04
2.932270058708414950e+00 -1.500103920716626448e-03
2.943013698630136954e+00 -2.273030487260582679e-03
2.953757338551858957e+00 -2.836754937819446157e-03
2.964500978473581405e+00 -3.113080778588895887e-03
2.975244618395303409e+00 -3.059948337042875215e-03
2.985988258317025412e+00 -2.678793515579418628e-03
2.996731898238747860e+00 -2.012239313108745396e-03
3.007475538160469863e+00 -1.135206571730658191e-03
3.018219178082191867e+00 -1.451201211621879958e-04
3.028962818003913871e+00 8.467712790734048620e-04
3.039706457925635874e+00 1.725272037295983709e-03
3.050450097847358322e+00 2.384090129993670943e-03
3.061193737769080325e+00 2.739895067453138131e-03
3.071937377690802329e+00 2.744367732263022081e-03
3.082681017612524776e+00 2.392236493248654002e-03
3.093424657534246780e+00 1.724051997836358345e-03
3.104168297455968784e+00 8.221538101827201208e-04
3.114911937377690787e+00 -2.008916438831407324e-04
3.125655577299412791e+00 -1.219813465651091835e-03
3.136399217221135238e+00 -2.116439203384187871e-03
3.147142857142857242e+00 -2.796758587150373343e-03
3.157886497064579245e+00 -3.200304878941137056e-03
3.168630136986301693e+00 -3.300169858827842109e-03
3.179373776908023697e+00 -3.097186126244257705e-03
3.190117416829745700e+00 -2.613972154074079013e-03
3.200861056751467704e+00 -1.891717149851842097e-03
3.211604696673189707e+00 -9.887843737197820476e-04
3.222348336594912155e+00 2.094383051565625652e-05
3.233091976516634158e+00 1.051385237218741128e-03
3.243835616438356162e+00 2.009915005559406373e-03
3.254579256360078610e+00 2.805178092699150191e-03
3.265322896281800613e+00 3.355811589807586228e-03
3.276066536203522617e+00 3.598638786190366205e-03
3.286810176125244620e+00 3.496054282687284347e-03
3.297553816046966624e+00 3.043363679754586704e-03
3.308297455968689071e+00 2.275714832083985777e-03
3.319041095890411075e+00 1.271109540798846761e-03
3.329784735812133079e+00 1.441876178147509036e-04
3.340528375733855526e+00 -9.714601234289872451e-04
3.351272015655577530e+00 -1.947880630701568369e-03
3.362015655577299533e+00 -2.684992064698795561e-03
3.372759295499021537e+00 -3.123084610595013716e-03
3.383502935420743540e+00 -3.244447143243441110e-03
3.394246575342465988e+00 -3.067471018058967516e-03
3.404990215264187992e+00 -2.636628591222993975e-03
3.415733855185909995e+00 -2.010332227855908711e-03
3.426477495107632443e+00 -1.249255275085874549e-03
3.437221135029354446e+00 -4.089829135166777848e-04
3.447964774951076450e+00 4.606002189562307791e-04
3.458708414872798453e+00 1.310906769898829722e-03
3.469452054794520457e+00 2.089945250101624911e-03
3.480195694716242905e+00 2.741426796712511434e-03
3.490939334637964908e+00 3.208981686055715349e-03
3.501682974559686912e+00 3.444274926445990009e-03
3.512426614481409359e+00 3.416115382533329182e-03
3.523170254403131363e+00 3.116743174187644721e-03
3.533913894324853366e+00 2.562818775855759106e-03
3.544657534246575370e+00 1.792347149281862170e-03
3.555401174168297374e+00 8.609898105709129544e-04
3.566144814090019821e+00 -1.609009793920108586e-04
3.576888454011741825e+00 -1.192299037842888725e-03
3.587632093933463828e+00 -2.148007535830543952e-03
3.598375733855186276e+00 -2.946763285820309507e-03
3.609119373776908279e+00 -3.519487692614028593e-03
3.619863013698630283e+00 -3.816840927426580141e-03
3.630606653620352287e+00 -3.814656014732164310e-03
3.641350293542074290e+00 -3.515161342809651479e-03
3.652093933463796738e+00 -2.943529636576751232e-03
3.662837573385518741e+00 -2.142224065993883833e-03
3.673581213307240745e+00 -1.166709951515451866e-03
3.684324853228963192e+00 -8.417201768281568108e-05
3.695068493150685196e+00 1.026493199815424907e-03
3.705812133072407200e+00 2.077246386027702466e-03
3.716555772994129203e+00 2.978660828949388460e-03
3.727299412915851207e+00 3.651496122249114212e-03
3.738043052837573654e+00 4.037436649392954491e-03
3.748786692759295658e+00 4.104981732507030460e-03
3.759530332681017661e+00 3.850262908986056692e-03
3.770273972602740109e+00 3.295398486865374135e-03
3.781017612524462113e+00 2.486170660436082779e-03
3.791761252446184116e+00 1.488132489065857990e-03
3.802504892367906120e+00 3.795792403016440405e-04
3.813248532289628123e+00 -7.577968992405548828e-04
3.823992172211350571e+00 -1.847148811237894848e-03
3.834735812133072574e+00 -2.820547612955624263e-03
3.845479452054794578e+00 -3.619000385025745049e-03
3.856223091976517026e+00 -4.191333514759664793e-03
3.866966731898239029e+00 -4.494770254172028405e-03
3.877710371819961033e+00 -4.497919974699136902e-03
3.888454011741683036e+00 -4.185238314448708370e-03
3.899197651663405040e+00 -3.561538812559028686e-03
3.909941291585127487e+00 -2.655018258046676783e-03
3.920684931506849491e+00 -1.517380217218870959e-03
3.931428571428571495e+00 -2.206561674401953178e-04
3.942172211350293942e+00 1.147944461899613744e-03
3.952915851272015946e+00 2.490972640092485244e-03
3.963659491193737949e+00 3.704834361499161934e-03
3.974403131115459953e+00 4.685157798565328137e-03
3.985146771037181956e+00 5.335891168392610344e-03
3.995890410958904404e+00 5.581516305843961176e-03
4.006634050880626852e+00 5.379106903748769215e-03
4.017377690802348411e+00 4.727609529824762860e-03
4.028121330724070859e+00 3.673023310630336644e-03
4.038864970645792418e+00 2.307201503336828857e-03
4.049608610567514866e+00 7.575098271428167647e-04
4.060352250489237314e+00 -8.319022157992068782e-04
4.071095890410958873e+00 -2.321530639487795217e-03
4.081839530332681321e+00 -3.593920179296488260e-03
4.092583170254403768e+00 -4.563595645933718123e-03
4.103326810176125328e+00 -5.179851321508280142e-03
4.114070450097847775e+00 -5.424562372111632266e-03
4.124814090019569335e+00 -5.307313772958349371e-03
4.135557729941291782e+00 -4.859268993889184415e-03
4.146301369863014230e+00 -4.126105503805317480e-03
4.157045009784735790e+00 -3.160415116906793893e-03
4.167788649706458237e+00 -2.015580047129027132e-03
4.178532289628179797e+00 -7.441386840486061529e-04
4.189275929549902244e+00 5.983619969114712875e-04
4.200019569471624692e+00 1.947092904153783187e-03
4.210763209393346251e+00 3.224630983191475748e-03
4.221506849315068699e+00 4.344263212524303829e-03
4.232250489236791147e+00 5.219268504639835125e-03
4.242994129158512706e+00 5.774178048601510439e-03
