# time d(t)
1.000000000000000021e-02 9.994670348117108416e-01
2.074363992172211651e-02 9.977107927326055448e-01
3.148727984344423109e-02 9.947415343502549190e-01
4.223091976516634566e-02 9.905813602746993407e-01
5.297455968688846023e-02 9.852607498246569451e-01
6.371819960861056786e-02 9.788178729471741502e-01
7.446183953033268244e-02 9.712977591100808716e-01
8.520547945205479701e-02 9.627513608857675154e-01
9.594911937377691158e-02 9.532345522784576586e-01
1.066927592954990262e-01 9.428071014467290789e-01
1.174363992172211407e-01 9.315316545984518859e-01
1.281800391389432692e-01 9.194727629534694691e-01
1.389236790606653837e-01 9.066959783872614587e-01
1.496673189823874983e-01 8.932670363563179894e-01
1.604109589041096129e-01 8.792511376179342752e-01
1.711545988258317275e-01 8.647123336659804371e-01
1.818982387475538420e-01 8.497130151496987693e-01
1.926418786692759566e-01 8.343134981039715958e-01
2.033855185909980712e-01 8.185716997105635384e-01
2.141291585127201857e-01 8.025428934945251225e-01
2.248727984344423003e-01 7.862795331836358592e-01
2.356164383561644149e-01 7.698311346885311490e-01
2.463600782778865295e-01 7.532442065282638488e-01
2.571037181996086440e-01 7.365622202645001337e-01
2.678473581213307586e-01 7.198256138842445973e-01
2.785909980430528732e-01 7.030718224049932186e-01
2.893346379647749878e-01 6.863353311466040552e-01
3.000782778864971023e-01 6.696477480580650399e-01
3.108219178082192169e-01 6.530378921904526068e-01
3.215655577299413315e-01 6.365318958904816471e-01
3.323091976516634460e-01 6.201533185934643422e-01
3.430528375733855606e-01 6.039232702689433241e-01
3.537964774951076752e-01 5.878605426631519082e-01
3.645401174168297898e-01 5.719817465278232982e-01
3.752837573385519043e-01 5.563014530523008316e-01
3.860273972602740189e-01 5.408323377430618306e-01
3.967710371819961335e-01 5.255853250319033609e-01
4.075146771037182480e-01 5.105697319469025830e-01
4.182583170254403626e-01 4.957934092526413150e-01
4.290019569471624772e-01 4.812628785615608584e-01
4.397455968688845918e-01 4.669834640402047987e-01
4.504892367906067063e-01 4.529594174855837152e-01
4.612328767123288209e-01 4.391940357294014663e-01
4.719765166340509355e-01 4.256897695400839177e-01
4.827201565557730500e-01 4.124483234294695766e-01
4.934637964774951646e-01 3.994707460239327323e-01
5.042074363992172792e-01 3.867575109167230574e-01
5.149510763209393938e-01 3.743085881656661451e-01
5.256947162426615083e-01 3.621235068241644428e-01
5.364383561643836229e-01 3.502014090813622138e-01
5.471819960861057375e-01 3.385410967302394658e-01
5.579256360078278520e-01 3.271410707753327207e-01
5.686692759295499666e-01 3.159995650343648266e-01
5.794129158512720812e-01 3.051145745842515633e-01
5.901565557729941958e-01 2.944838798591742912e-01
6.009001956947163103e-01 2.841050671363848923e-01
6.116438356164384249e-01 2.739755460548313759e-01
6.223874755381605395e-01 2.640925647129086506e-01
6.331311154598826541e-01 2.544532227936736613e-01
6.438747553816047686e-01 2.450544830757097337e-01
6.546183953033268832e-01 2.358931816101808576e-01
6.653620352250489978e-01 2.269660367818985003e-01
6.761056751467711123e-01 2.182696574249370358e-01
6.868493150684932269e-01 2.098005501304754938e-01
6.975929549902153415e-01 2.015551258641662402e-01
7.083365949119374561e-01 1.935297059999777358e-01
7.190802348336595706e-01 1.857205278745404642e-01
7.298238747553816852e-01 1.781237499680669301e-01
7.405675146771037998e-01 1.707354568226616964e-01
7.513111545988259143e-01 1.635516638143082180e-01
7.620547945205480289e-01 1.565683218992868497e-01
7.727984344422701435e-01 1.497813224577512203e-01
7.835420743639922581e-01 1.431865023554113325e-01
7.942857142857143726e-01 1.367796493377519129e-01
8.050293542074364872e-01 1.305565078592847428e-01
8.157729941291586018e-01 1.245127854327386652e-01
8.265166340508807163e-01 1.186441595600369603e-01
8.372602739726028309e-01 1.129462852791194433e-01
8.480039138943249455e-01 1.074148033293541027e-01
8.587475538160470601e-01 1.020453489050859586e-01
8.694911937377691746e-01 9.683356093372651185e-02
8.802348336594912892e-01 9.177509178374945731e-02
8.909784735812134038e-01 8.686561728100461455e-02
9.017221135029355183e-01 8.210084689059549135e-02
9.124657534246576329e-01 7.747653390745784519e-02
9.232093933463797475e-01 7.298848549242656358e-02
9.339530332681018621e-01 6.863257239209116789e-02
9.446966731898239766e-01 6.440473818960779084e-02
9.554403131115460912e-01 6.030100794883852533e-02
9.661839530332682058e-01 5.631749613431270840e-02
9.769275929549903204e-01 5.245041371289965032e-02
9.876712328767124349e-01 4.869607436804287981e-02
9.984148727984345495e-01 4.505089978232531406e-02
1.009158512720156553e+00 4.151142396763969622e-02
1.019902152641878779e+00 3.807429664328662589e-02
1.030645792563601004e+00 3.473628568024762081e-02
1.041389432485323008e+00 3.149427864438904268e-02
1.052133072407045011e+00 2.834528348249693713e-02
1.062876712328767237e+00 2.528642840313484463e-02
1.073620352250489463e+00 2.231496100984959111e-02
1.084363992172211466e+00 1.942824674780742333e-02
1.095107632093933470e+00 1.662376672710431241e-02
1.105851272015655695e+00 1.389911498726168620e-02
1.116594911937377921e+00 1.125199526818580417e-02
1.127338551859099924e+00 8.680217353370699510e-03
1.138082191780821928e+00 6.181693051460785543e-03
1.148825831702544154e+00 3.754431882422651790e-03
1.159569471624266379e+00 1.396536534380991151e-03
1.170313111545988383e+00 -8.938018435274541068e-04
1.181056751467710386e+00 -3.118308448330203882e-03
1.191800391389432612e+00 -5.278629668737699725e-03
1.202544031311154837e+00 -7.376337910551176297e-03
1.213287671232876841e+00 -9.412936347747067473e-03
1.224031311154598844e+00 -1.138986355021905442e-02
1.234774951076321070e+00 -1.330849794518989410e-02
1.245518590998043296e+00 -1.517016207598461189e-02
1.256262230919765299e+00 -1.697612662896090530e-02
1.267005870841487303e+00 -1.872761420667016022e-02
1.277749510763209528e+00 -2.042580283253520035e-02
1.288493150684931754e+00 -2.207182917924317353e-02
1.299236790606653758e+00 -2.366679151947766180e-02
1.309980430528375761e+00 -2.521175240339524476e-02
1.320724070450097987e+00 -2.670774107228789454e-02
1.331467710371820212e+00 -2.815575562210164209e-02
1.342211350293542216e+00 -2.955676493389110954e-02
1.352954990215264219e+00 -3.091171039090039041e-02
1.363698630136986445e+00 -3.222150740383281781e-02
1.374442270058708671e+00 -3.348704676707839334e-02
1.385185909980430674e+00 -3.470919586930290568e-02
1.395929549902152678e+00 -3.588879978194757514e-02
1.406673189823874903e+00 -3.702668224891859233e-02
1.417416829745597129e+00 -3.812364660010936213e-02
1.428160469667319132e+00 -3.918047661040485047e-02
1.438904109589041136e+00 -4.019793732445870599e-02
1.449647749510763362e+00 -4.117677586577045412e-02
1.460391389432485587e+00 -4.211772224639512979e-02
1.471135029354207591e+00 -4.302149019097666754e-02
1.481878669275929594e+00 -4.388877798575308020e-02
1.492622309197651820e+00 -4.472026935983407919e-02
1.503365949119374045e+00 -4.551663440256634857e-02
1.514109589041096049e+00 -4.627853051738679141e-02
1.524853228962818052e+00 -4.700660340943593057e-02
1.535596868884540278e+00 -4.770148810154201807e-02
1.546340508806262504e+00 -4.836380997109331753e-02
1.557084148727984507e+00 -4.899418579877480584e-02
1.567827788649706511e+00 -4.959322481903748886e-02
1.578571428571428736e+00 -5.016152976128873675e-02
1.589315068493150962e+00 -5.069969786992911676e-02
1.600058708414872966e+00 -5.120832189035819104e-02
1.610802348336594969e+00 -5.168799100691891940e-02
1.621545988258317195e+00 -5.213929171761422232e-02
1.632289628180039420e+00 -5.256280862964822498e-02
1.643033268101761424e+00 -5.295912515986068991e-02
1.653776908023483427e+00 -5.332882412536217587e-02
1.664520547945205653e+00 -5.367248821239871404e-02
1.675264187866927879e+00 -5.399070031565753047e-02
1.686007827788649882e+00 -5.428404374547574768e-02
1.696751467710371886e+00 -5.455310230601604499e-02
1.707495107632094111e+00 -5.479846025248404084e-02
1.718238747553816337e+00 -5.502070213895330492e-02
1.728982387475538340e+00 -5.522041256964917849e-02
1.739726027397260344e+00 -5.539817586541994493e-02
1.750469667318982570e+00 -5.555457565399642139e-02
1.761213307240704795e+00 -5.569019438849658749e-02
1.771956947162426799e+00 -5.580561279485363180e-02
1.782700587084148802e+00 -5.590140924688536544e-02
1.793444227005871028e+00 -5.597815906868813807e-02
1.804187866927593253e+00 -5.603643376834881173e-02
1.814931506849315257e+00 -5.607680021411015625e-02
1.825675146771037261e+00 -5.609981977266952080e-02
1.836418786692759486e+00 -5.610604743714655424e-02
1.847162426614481712e+00 -5.609603097714963016e-02
1.857906066536203715e+00 -5.607031014343936276e-02
1.868649706457925719e+00 -5.602941595405200315e-02
1.879393346379647944e+00 -5.597387007786833180e-02
1.890136986301370170e+00 -5.590418431737673166e-02
1.900880626223092174e+00 -5.582086017775634429e-02
1.911624266144814177e+00 -5.572438849782551662e-02
1.922367906066536403e+00 -5.561524911291532841e-02
1.933111545988258628e+00 -5.549391052216133546e-02
1.943855185909980632e+00 -5.536082954306543319e-02
1.954598825831702635e+00 -5.521645095244326340e-02
1.965342465753424861e+00 -5.506120713130067956e-02
1.976086105675147087e+00 -5.489551774710391130e-02
1.986829745596869090e+00 -5.471978951581646378e-02
1.997573385518591094e+00 -5.453441608479776825e-02
2.008317025440313319e+00 -5.433977806529410176e-02
2.019060665362035323e+00 -5.413624322160929397e-02
2.029804305283757326e+00 -5.392416679745710290e-02
2.040547945205479330e+00 -5.370389193444933401e-02
2.051291585127201778e+00 -5.347575011947795082e-02
2.062035225048923781e+00 -5.324006159198810956e-02
2.072778864970645785e+00 -5.299713565132388449e-02
2.083522504892367788e+00 -5.274727082756301699e-02
2.094266144814089792e+00 -5.249075491218015838e-02
2.105009784735812239e+00 -5.222786488046127912e-02
2.115753424657534243e+00 -5.195886676763602358e-02
2.126497064579256246e+00 -5.168401557772268201e-02
2.137240704500978694e+00 -5.140355530318522354e-02
2.147984344422700698e+00 -5.111771911370104060e-02
2.158727984344422701e+00 -5.082672973707318825e-02
2.169471624266144705e+00 -5.053080001192732096e-02
2.180215264187866708e+00 -5.023013355005657987e-02
2.190958904109589156e+00 -4.992492541612002926e-02
2.201702544031311160e+00 -4.961536272178479479e-02
2.212446183953033163e+00 -4.930162504418090369e-02
2.223189823874755611e+00 -4.898388461336369848e-02
2.233933463796477614e+00 -4.866230626378720281e-02
2.244677103718199618e+00 -4.833704720004908945e-02
2.255420743639921621e+00 -4.800825667504880767e-02
2.266164383561643625e+00 -4.767607570783140292e-02
2.276908023483366073e+00 -4.734063697099306911e-02
2.287651663405088076e+00 -4.700206495137337903e-02
2.298395303326810080e+00 -4.666047643697863317e-02
2.309138943248532527e+00 -4.631598131753158348e-02
2.319882583170254531e+00 -4.596868361940135289e-02
2.330626223091976534e+00 -4.561868264256897093e-02
2.341369863013698538e+00 -4.526607404010251495e-02
2.352113502935420541e+00 -4.491095068664865270e-02
2.362857142857142989e+00 -4.455340322205925824e-02
2.373600782778864993e+00 -4.419352022253130591e-02
2.384344422700586996e+00 -4.383138803148928231e-02
2.395088062622309444e+00 -4.346709035929035431e-02
2.405831702544031447e+00 -4.310070781797512712e-02
2.416575342465753451e+00 -4.273231758148395704e-02
2.427318982387475454e+00 -4.236199334620529416e-02
2.438062622309197458e+00 -4.198980571274488205e-02
2.448806262230919906e+00 -4.161582302688383167e-02
2.459549902152641909e+00 -4.124011262178890053e-02
2.470293542074363913e+00 -4.086274231397208495e-02
2.481037181996086360e+00 -4.048378194107514483e-02
2.491780821917808364e+00 -4.010330470464627817e-02
2.502524461839530368e+00 -3.972138810252636570e-02
2.513268101761252371e+00 -3.933811430093517997e-02
2.524011741682974375e+00 -3.895356989451983359e-02
2.534755381604696822e+00 -3.856784511519126268e-02
2.545499021526418826e+00 -3.818103265571808069e-02
2.556242661448140829e+00 -3.779322635069969072e-02
2.566986301369863277e+00 -3.740451998959044150e-02
2.577729941291585281e+00 -3.701500651604925501e-02
2.588473581213307284e+00 -3.662477779722030785e-02
2.599217221135029288e+00 -3.623392503764549105e-02
2.609960861056751291e+00 -3.584253978513540079e-02
2.620704500978473739e+00 -3.545071535397424645e-02
2.631448140900195742e+00 -3.505854839779364018e-02
2.642191780821917746e+00 -3.466614031892745196e-02
2.652935420743640194e+00 -3.427359821314215904e-02
2.663679060665362197e+00 -3.388103511781089677e-02
2.674422700587084201e+00 -3.348856944665344615e-02
2.685166340508806204e+00 -3.309632363509506375e-02
2.695909980430528208e+00 -3.270442216185294459e-02
2.706653620352250655e+00 -3.231298922863898998e-02
2.717397260273972659e+00 -3.192214644905281423e-02
2.728140900195694663e+00 -3.153201090613662327e-02
2.738884540117417110e+00 -3.114269388271328695e-02
2.749628180039139114e+00 -3.075430045797246034e-02
2.760371819960861117e+00 -3.036693001627753866e-02
2.771115459882583121e+00 -2.998067755517094812e-02
2.781859099804305124e+00 -2.959563553680932130e-02
2.792602739726027572e+00 -2.921189592589241990e-02
2.803346379647749576e+00 -2.882955201597326919e-02
2.814090019569471579e+00 -2.844869967309313075e-02
2.824833659491194027e+00 -2.806943771752207564e-02
2.835577299412916030e+00 -2.769186730636468904e-02
2.846320939334638034e+00 -2.731609034853062917e-02
2.857064579256360037e+00 -2.694220715085861653e-02
2.867808219178082041e+00 -2.657031363175801561e-02
2.878551859099804489e+00 -2.620049852302955631e-02
2.889295499021526492e+00 -2.583284099666043401e-02
2.900039138943248496e+00 -2.546740909766721447e-02
2.910782778864970943e+00 -2.510425924464245243e-02
2.921526418786692947e+00 -2.474343689524004242e-02
2.932270058708414950e+00 -2.438497829061384015e-02
2.943013698630136954e+00 -2.402891302025702766e-02
2.953757338551858957e+00 -2.367526701470438338e-02
2.964500978473581405e+00 -2.332406550008244567e-02
2.975244618395303409e+00 -2.297533544789620921e-02
2.985988258317025412e+00 -2.262910712660195015e-02
2.996731898238747860e+00 -2.228541449764886301e-02
3.007475538160469863e+00 -2.194429437705086236e-02
3.018219178082191867e+00 -2.160578447674390071e-02
3.028962818003913871e+00 -2.126992061815457732e-02
3.039706457925635874e+00 -2.093673354590645450e-02
3.050450097847358322e+00 -2.060624584124830933e-02
3.061193737769080325e+00 -2.027846943110445110e-02
3.071937377690802329e+00 -1.995340410954783011e-02
3.082681017612524776e+00 -1.963103734530094457e-02
3.093424657534246780e+00 -1.931134546255739576e-02
3.104168297455968784e+00 -1.899429608046263387e-02
3.114911937377690787e+00 -1.867985150884791945e-02
3.125655577299412791e+00 -1.836797265208007374e-02
3.136399217221135238e+00 -1.805862289085675976e-02
3.147142857142857242e+00 -1.775177140583831734e-02
3.157886497064579245e+00 -1.744739547853135439e-02
3.168630136986301693e+00 -1.714548144400104487e-02
3.179373776908023697e+00 -1.684602415723498309e-02
3.190117416829745700e+00 -1.654902504388660461e-02
3.200861056751467704e+00 -1.625448900715923545e-02
3.211604696673189707e+00 -1.596242062733442199e-02
3.222348336594912155e+00 -1.567282019556553302e-02
3.233091976516634158e+00 -1.538568015404821916e-02
3.243835616438356162e+00 -1.510098246592394416e-02
3.254579256360078610e+00 -1.481869731660704660e-02
3.265322896281800613e+00 -1.453878337003568222e-02
3.276066536203522617e+00 -1.426118959274590668e-02
3.286810176125244620e+00 -1.398585844419737885e-02
3.297553816046966624e+00 -1.371273004248149512e-02
3.308297455968689071e+00 -1.344174677607251969e-02
3.319041095890411075e+00 -1.317285776343833995e-02
3.329784735812133079e+00 -1.290602257261247096e-02
3.340528375733855526e+00 -1.264121370120606901e-02
3.351272015655577530e+00 -1.237841747245387557e-02
3.362015655577299533e+00 -1.211763320461267668e-02
3.372759295499021537e+00 -1.185887073317174606e-02
3.383502935420743540e+00 -1.160214657907631883e-02
3.394246575342465988e+00 -1.134747923384992266e-02
3.404990215264187992e+00 -1.109488415116367636e-02
3.415733855185909995e+00 -1.084436907871016119e-02
3.426477495107632443e+00 -1.059593032836968554e-02
3.437221135029354446e+00 -1.034955047096934241e-02
3.447964774951076450e+00 -1.010519776832483063e-02
3.458708414872798453e+00 -9.862827441345159429e-03
3.469452054794520457e+00 -9.622384645338072362e-03
3.480195694716242905e+00 -9.383808810478021928e-03
3.490939334637964908e+00 -9.147038833005738737e-03
3.501682974559686912e+00 -8.912018492367458286e-03
3.512426614481409359e+00 -8.678701434775252729e-03
3.523170254403131363e+00 -8.447055108962146786e-03
3.533913894324853366e+00 -8.217063159904341649e-03
3.544657534246575370e+00 -7.988725966679561391e-03
3.555401174168297374e+00 -7.762059229894443732e-03
3.566144814090019821e+00 -7.537090746096612205e-03
3.576888454011741825e+00 -7.313855723665863527e-03
3.587632093933463828e+00 -7.092391171038566096e-03
3.598375733855186276e+00 -6.872730002820789247e-03
3.609119373776908279e+00 -6.654895548763875568e-03
3.619863013698630283e+00 -6.438897109995962709e-03
3.630606653620352287e+00 -6.224727091014685583e-03
3.641350293542074290e+00 -6.012360058250151677e-03
3.652093933463796738e+00 -5.801753857163639318e-03
3.662837573385518741e+00 -5.592852685202299133e-03
3.673581213307240745e+00 -5.385591794514737324e-03
3.684324853228963192e+00 -5.179903311697228382e-03
3.695068493150685196e+00 -4.975722533118008203e-03
3.705812133072407200e+00 -4.772993997893954649e-03
3.716555772994129203e+00 -4.571676662376904406e-03
3.727299412915851207e+00 -4.371747597178140751e-03
3.738043052837573654e+00 -4.173203789056290254e-03
3.748786692759295658e+00 -3.976061837188314685e-03
3.759530332681017661e+00 -3.780355563382584508e-03
3.770273972602740109e+00 -3.586131783435317702e-03
3.781017612524462113e+00 -3.393444687409275136e-03
3.791761252446184116e+00 -3.202349428674572569e-03
3.802504892367906120e+00 -3.012895609055588758e-03
3.813248532289628123e+00 -2.825121361338430413e-03
3.823992172211350571e+00 -2.639048669507827391e-03
3.834735812133072574e+00 -2.454680438036588221e-03
3.845479452054794578e+00 -2.271999638069046191e-03
3.856223091976517026e+00 -2.090970639764383986e-03
3.866966731898239029e+00 -1.911542609353229782e-03
3.877710371819961033e+00 -1.733654630825437297e-03
3.888454011741683036e+00 -1.557242028589828336e-03
3.899197651663405040e+00 -1.382243238279548016e-03
3.909941291585127487e+00 -1.208606511826759234e-03
3.920684931506849491e+00 -1.036295756556357504e-03
3.931428571428571495e+00 -8.652948950360231199e-04
3.942172211350293942e+00 -6.956102836747801070e-04
3.952915851272015946e+00 -5.272709276412752485e-04
3.963659491193737949e+00 -3.603264565138961355e-04
3.974403131115459953e+00 -1.948430552819663871e-04
3.985146771037181956e+00 -3.089775479035261445e-05
3.995890410958904404e+00 1.314283472161319882e-04
4.006634050880626852e+00 2.920572555482083259e-04
4.017377690802348411e+00 4.509209206023029933e-04
4.028121330724070859e+00 6.079670726616111590e-04
4.038864970645792418e+00 7.631634677779202108e-04
4.049608610567514866e+00 9.165001246821370077e-04
4.060352250489237314e+00 1.067989331009794535e-03
4.071095890410958873e+00 1.217663415430054845e-03
4.081839530332681321e+00 1.365570498572510078e-03
4.092583170254403768e+00 1.511768629406730867e-03
4.103326810176125328e+00 1.656318867184754066e-03
4.114070450097847775e+00 1.799277968705847910e-03
4.124814090019569335e+00 1.940691378225081710e-03
4.135557729941291782e+00 2.080587190190085530e-03
4.146301369863014230e+00 2.218971666201854237e-03
4.157045009784735790e+00 2.355826745434312901e-03
4.167788649706458237e+00 2.491109804966461574e-03
4.178532289628179797e+00 2.624755719295903539e-03
4.189275929549902244e+00 2.756681055115355831e-03
4.200019569471624692e+00 2.886790037426250656e-03
4.210763209393346251e+00 3.014981754623021100e-03
4.221506849315068699e+00 3.141157949284116915e-03
4.232250489236791147e+00 3.265230680110136653e-03
