# time d(t)
1.000000000000000021e-02 9.999377054266969100e-01
2.074363992172211651e-02 9.997319761388862025e-01
3.148727984344423109e-02 9.993825603573416316e-01
4.223091976516634566e-02 9.988896155046147474e-01
5.297455968688846023e-02 9.982533635448235243e-01
6.371819960861056786e-02 9.974740907584531691e-01
7.446183953033268244e-02 9.965521474522631706e-01
8.520547945205479701e-02 9.954879476048620335e-01
9.594911937377691158e-02 9.942819684486428056e-01
1.066927592954990262e-01 9.929347499888848683e-01
1.174363992172211407e-01 9.914468944609571288e-01
1.281800391389432692e-01 9.898190657266660031e-01
1.389236790606653837e-01 9.880519886109082606e-01
1.496673189823874983e-01 9.861464481798956072e-01
1.604109589041096129e-01 9.841032889623264612e-01
1.711545988258317275e-01 9.819234141149801864e-01
1.818982387475538420e-01 9.796077845343006407e-01
1.926418786692759566e-01 9.771574179156385931e-01
2.033855185909980712e-01 9.745733877618965035e-01
2.141291585127201857e-01 9.718568223434090880e-01
2.248727984344423003e-01 9.690089036109666987e-01
2.356164383561644149e-01 9.660308660639561618e-01
2.463600782778865295e-01 9.629239955756594416e-01
2.571037181996086440e-01 9.596896281778118931e-01
2.678473581213307586e-01 9.563291488065672752e-01
2.785909980430528732e-01 9.528439900120673212e-01
2.893346379647749878e-01 9.492356306338544103e-01
3.000782778864971023e-01 9.455055944443923055e-01
3.108219178082192169e-01 9.416554487629951176e-01
3.215655577299413315e-01 9.376868030424820866e-01
3.323091976516634460e-01 9.336013074308847637e-01
3.430528375733855606e-01 9.294006513105534939e-01
3.537964774951076752e-01 9.250865618169992199e-01
3.645401174168297898e-01 9.206608023398132890e-01
3.752837573385519043e-01 9.161251710079904020e-01
3.860273972602740189e-01 9.114814991619699658e-01
3.967710371819961335e-01 9.067316498146860138e-01
4.075146771037182480e-01 9.018775161038941057e-01
4.182583170254403626e-01 8.969210197380061977e-01
4.290019569471624772e-01 8.918641094376331679e-01
4.397455968688845918e-01 8.867087593749920504e-01
4.504892367906067063e-01 8.814569676132858467e-01
4.612328767123288209e-01 8.761107545481219283e-01
4.719765166340509355e-01 8.706721613529707637e-01
4.827201565557730500e-01 8.651432484306220694e-01
4.934637964774951646e-01 8.595260938725204358e-01
5.042074363992172792e-01 8.538227919278109646e-01
5.149510763209393938e-01 8.480354514838542856e-01
5.256947162426615083e-01 8.421661945598982735e-01
5.364383561643836229e-01 8.362171548155280520e-01
5.471819960861057375e-01 8.301904760754411639e-01
5.579256360078278520e-01 8.240883108720179484e-01
5.686692759295499666e-01 8.179128190070861226e-01
5.794129158512720812e-01 8.116661661341970646e-01
5.901565557729941958e-01 8.053505223626583609e-01
6.009001956947163103e-01 7.989680608844880183e-01
6.116438356164384249e-01 7.925209566253755833e-01
6.223874755381605395e-01 7.860113849206648018e-01
6.331311154598826541e-01 7.794415202172867430e-01
6.438747553816047686e-01 7.728135348025040319e-01
6.546183953033268832e-01 7.661295975602468999e-01
6.653620352250489978e-01 7.593918727557483761e-01
6.761056751467711123e-01 7.526025188491161089e-01
6.868493150684932269e-01 7.457636873384017040e-01
6.975929549902153415e-01 7.388775216326660678e-01
7.083365949119374561e-01 7.319461559554656382e-01
7.190802348336595706e-01 7.249717142791216595e-01
7.298238747553816852e-01 7.179563092900737020e-01
7.405675146771037998e-01 7.109020413855526854e-01
7.513111545988259143e-01 7.038109977017541485e-01
7.620547945205480289e-01 6.966852511736374431e-01
7.727984344422701435e-01 6.895268596264184646e-01
7.835420743639922581e-01 6.823378648987783457e-01
7.942857142857143726e-01 6.751202919977582484e-01
8.050293542074364872e-01 6.678761482852688669e-01
8.157729941291586018e-01 6.606074226960985118e-01
8.265166340508807163e-01 6.533160849872630127e-01
8.372602739726028309e-01 6.460040850185065908e-01
8.480039138943249455e-01 6.386733520637257744e-01
8.587475538160470601e-01 6.313257941530587836e-01
8.694911937377691746e-01 6.239632974453510617e-01
8.802348336594912892e-01 6.165877256306820930e-01
8.909784735812134038e-01 6.092009193626178876e-01
9.017221135029355183e-01 6.018046957198235347e-01
9.124657534246576329e-01 5.944008476966595733e-01
9.232093933463797475e-01 5.869911437223617190e-01
9.339530332681018621e-01 5.795773272083920569e-01
9.446966731898239766e-01 5.721611161235348186e-01
9.554403131115460912e-01 5.647442025962968737e-01
9.661839530332682058e-01 5.573282525441668467e-01
9.769275929549903204e-01 5.499149053292762268e-01
9.876712328767124349e-01 5.425057734399955089e-01
9.984148727984345495e-01 5.351024421980027368e-01
1.009158512720156553e+00 5.277064694903450537e-01
1.019902152641878779e+00 5.203193855260218603e-01
1.030645792563601004e+00 5.129426926166088530e-01
1.041389432485323008e+00 5.055778649804447689e-01
1.052133072407045011e+00 4.982263485698983363e-01
1.062876712328767237e+00 4.908895609212401423e-01
1.073620352250489463e+00 4.835688910266366380e-01
1.084363992172211466e+00 4.762656992277892742e-01
1.095107632093933470e+00 4.689813171307434247e-01
1.105851272015655695e+00 4.617170475413912012e-01
1.116594911937377921e+00 4.544741644211985898e-01
1.127338551859099924e+00 4.472539128626823457e-01
1.138082191780821928e+00 4.400575090841701287e-01
1.148825831702544154e+00 4.328861404433801408e-01
1.159569471624266379e+00 4.257409654693529721e-01
1.170313111545988383e+00 4.186231139122739142e-01
1.181056751467710386e+00 4.115336868107262180e-01
1.191800391389432612e+00 4.044737565759163878e-01
1.202544031311154837e+00 3.974443670924134309e-01
1.213287671232876841e+00 3.904465338349446535e-01
1.224031311154598844e+00 3.834812440007935863e-01
1.234774951076321070e+00 3.765494566573442392e-01
1.245518590998043296e+00 3.696521029043173812e-01
1.256262230919765299e+00 3.627900860502422109e-01
1.267005870841487303e+00 3.559642818027099476e-01
1.277749510763209528e+00 3.491755384719536504e-01
1.288493150684931754e+00 3.424246771872981321e-01
1.299236790606653758e+00 3.357124921260216666e-01
1.309980430528375761e+00 3.290397507541734656e-01
1.320724070450097987e+00 3.224071940788876267e-01
1.331467710371820212e+00 3.158155369117333078e-01
1.342211350293542216e+00 3.092654681426396657e-01
1.352954990215264219e+00 3.027576510239345930e-01
1.363698630136986445e+00 2.962927234640336804e-01
1.374442270058708671e+00 2.898712983303154411e-01
1.385185909980430674e+00 2.834939637607178375e-01
1.395929549902152678e+00 2.771612834835912031e-01
1.406673189823874903e+00 2.708737971453425430e-01
1.417416829745597129e+00 2.646320206454054746e-01
1.428160469667319132e+00 2.584364464780703474e-01
1.438904109589041136e+00 2.522875440807108571e-01
1.449647749510763362e+00 2.461857601879442470e-01
1.460391389432485587e+00 2.401315191912643532e-01
1.471135029354207591e+00 2.341252235036862528e-01
1.481878669275929594e+00 2.281672539289482660e-01
1.492622309197651820e+00 2.222579700348170650e-01
1.503365949119374045e+00 2.163977105300474157e-01
1.514109589041096049e+00 2.105867936445507405e-01
1.524853228962818052e+00 2.048255175123323002e-01
1.535596868884540278e+00 1.991141605567647854e-01
1.546340508806262504e+00 1.934529818777695476e-01
1.557084148727984507e+00 1.878422216404837530e-01
1.567827788649706511e+00 1.822821014650012894e-01
1.578571428571428736e+00 1.767728248167835803e-01
1.589315068493150962e+00 1.713145773973424602e-01
1.600058708414872966e+00 1.659075275348094736e-01
1.610802348336594969e+00 1.605518265740152883e-01
1.621545988258317195e+00 1.552476092657141260e-01
1.632289628180039420e+00 1.499949941545977716e-01
1.643033268101761424e+00 1.447940839657573531e-01
1.653776908023483427e+00 1.396449659892605444e-01
1.664520547945205653e+00 1.345477124625302778e-01
1.675264187866927879e+00 1.295023809502162671e-01
1.686007827788649882e+00 1.245090147212701559e-01
1.696751467710371886e+00 1.195676431229462655e-01
1.707495107632094111e+00 1.146782819514650248e-01
1.718238747553816337e+00 1.098409338190898532e-01
1.728982387475538340e+00 1.050555885173822673e-01
1.739726027397260344e+00 1.003222233764156229e-01
1.750469667318982570e+00 9.564080361974253153e-02
1.761213307240704795e+00 9.101128271492506250e-02
1.771956947162426799e+00 8.643360271945145501e-02
1.782700587084148802e+00 8.190769462187805217e-02
1.793444227005871028e+00 7.743347867805047691e-02
1.804187866927593253e+00 7.301086474227116985e-02
1.814931506849315257e+00 6.863975259329445355e-02
1.825675146771037261e+00 6.432003225504497046e-02
1.836418786692759486e+00 6.005158431196903901e-02
1.847162426614481712e+00 5.583428021894112914e-02
1.857906066536203715e+00 5.166798260565963474e-02
1.868649706457925719e+00 4.755254557548029004e-02
1.879393346379647944e+00 4.348781499864665112e-02
1.890136986301370170e+00 3.947362879988883244e-02
1.900880626223092174e+00 3.550981724037086118e-02
1.911624266144814177e+00 3.159620319398036975e-02
1.922367906066536403e+00 2.773260241796219466e-02
1.933111545988258628e+00 2.391882381790718520e-02
1.943855185909980632e+00 2.015466970711583816e-02
1.954598825831702635e+00 1.643993606036443789e-02
1.965342465753424861e+00 1.277441276211066512e-02
1.976086105675147087e+00 9.157883849179107583e-03
1.986829745596869090e+00 5.590127747975730255e-03
1.997573385518591094e+00 2.070917506285366305e-03
2.008317025440313319e+00 -1.399978980288880959e-03
2.019060665362035323e+00 -4.822798747180966072e-03
2.029804305283757326e+00 -8.197783544945262679e-03
2.040547945205479330e+00 -1.152517962849731320e-02
2.051291585127201778e+00 -1.480523755143911546e-02
2.062035225048923781e+00 -1.803821196539356214e-02
2.072778864970645785e+00 -2.122436142427258643e-02
2.083522504892367788e+00 -2.436394819339970930e-02
2.094266144814089792e+00 -2.745723806340934908e-02
2.105009784735812239e+00 -3.050450016884406756e-02
2.115753424657534243e+00 -3.350600681137116260e-02
2.126497064579256246e+00 -3.646203328754132889e-02
2.137240704500978694e+00 -3.937285772101097731e-02
2.147984344422700698e+00 -4.223876089915257898e-02
2.158727984344422701e+00 -4.506002611398038371e-02
2.169471624266144705e+00 -4.783693900731557369e-02
2.180215264187866708e+00 -5.056978742012202543e-02
2.190958904109589156e+00 -5.325886124594349236e-02
2.201702544031311160e+00 -5.590445228837387370e-02
2.212446183953033163e+00 -5.850685412249875123e-02
2.223189823874755611e+00 -6.106636196024281538e-02
2.233933463796477614e+00 -6.358327251956535919e-02
2.244677103718199618e+00 -6.605788389744601807e-02
2.255420743639921621e+00 -6.849049544660468225e-02
2.266164383561643625e+00 -7.088140765590282555e-02
2.276908023483366073e+00 -7.323092203437681080e-02
2.287651663405088076e+00 -7.553934099885166453e-02
2.298395303326810080e+00 -7.780696776509185564e-02
2.309138943248532527e+00 -8.003410624244119975e-02
2.319882583170254531e+00 -8.222106093191014486e-02
2.330626223091976534e+00 -8.436813682766848566e-02
2.341369863013698538e+00 -8.647563932190160951e-02
2.352113502935420541e+00 -8.854387411299270705e-02
2.362857142857142989e+00 -9.057314711698995213e-02
2.373600782778864993e+00 -9.256376438232200021e-02
2.384344422700586996e+00 -9.451603200772401570e-02
2.395088062622309444e+00 -9.643025606333541222e-02
2.405831702544031447e+00 -9.830674251493259908e-02
2.416575342465753451e+00 -1.001457971512590139e-01
2.427318982387475454e+00 -1.019477255144127653e-01
2.438062622309197458e+00 -1.037128328332532212e-01
2.448806262230919906e+00 -1.054414239597870201e-01
2.459549902152641909e+00 -1.071338033084901914e-01
2.470293542074363913e+00 -1.087902747985262930e-01
2.481037181996086360e+00 -1.104111417988137278e-01
2.491780821917808364e+00 -1.119967070758979555e-01
2.502524461839530368e+00 -1.135472727445804020e-01
2.513268101761252371e+00 -1.150631402212540927e-01
2.524011741682974375e+00 -1.165446101798945089e-01
2.534755381604696822e+00 -1.179919825106520020e-01
2.545499021526418826e+00 -1.194055562809884091e-01
2.556242661448140829e+00 -1.207856296993017747e-01
2.566986301369863277e+00 -1.221325000809755229e-01
2.577729941291585281e+00 -1.234464638167912659e-01
2.588473581213307284e+00 -1.247278163436389420e-01
2.599217221135029288e+00 -1.259768521174567946e-01
2.609960861056751291e+00 -1.271938645883310404e-01
2.620704500978473739e+00 -1.283791461776837006e-01
2.631448140900195742e+00 -1.295329882574736136e-01
2.642191780821917746e+00 -1.306556811313357991e-01
2.652935420743640194e+00 -1.317475140175796422e-01
2.663679060665362197e+00 -1.328087750339672912e-01
2.674422700587084201e+00 -1.338397511841913357e-01
2.685166340508806204e+00 -1.348407283459675254e-01
2.695909980430528208e+00 -1.358119912606613189e-01
2.706653620352250655e+00 -1.367538235243606071e-01
2.717397260273972659e+00 -1.376665075803115701e-01
2.728140900195694663e+00 -1.385503247126304016e-01
2.738884540117417110e+00 -1.394055550412046374e-01
2.749628180039139114e+00 -1.402324775176971294e-01
2.760371819960861117e+00 -1.410313699225680117e-01
2.771115459882583121e+00 -1.418025088630264496e-01
2.781859099804305124e+00 -1.425461697718285736e-01
2.792602739726027572e+00 -1.432626269068366376e-01
2.803346379647749576e+00 -1.439521533512556906e-01
2.814090019569471579e+00 -1.446150210144667991e-01
2.824833659491194027e+00 -1.452515006333761627e-01
2.835577299412916030e+00 -1.458618617742010459e-01
2.846320939334638034e+00 -1.464463728346176719e-01
2.857064579256360037e+00 -1.470053010461955800e-01
2.867808219178082041e+00 -1.475389124770486449e-01
2.878551859099804489e+00 -1.480474720346323381e-01
2.889295499021526492e+00 -1.485312434686224259e-01
2.900039138943248496e+00 -1.489904893738129565e-01
2.910782778864970943e+00 -1.494254711929725865e-01
2.921526418786692947e+00 -1.498364492196046227e-01
2.932270058708414950e+00 -1.502236826005577952e-01
2.943013698630136954e+00 -1.505874293384391049e-01
2.953757338551858957e+00 -1.509279462937834770e-01
2.964500978473581405e+00 -1.512454891869401130e-01
2.975244618395303409e+00 -1.515403125996367395e-01
2.985988258317025412e+00 -1.518126699761905007e-01
2.996731898238747860e+00 -1.520628136243348805e-01
3.007475538160469863e+00 -1.522909947156384503e-01
3.018219178082191867e+00 -1.524974632854936007e-01
3.028962818003913871e+00 -1.526824682326597959e-01
3.039706457925635874e+00 -1.528462573183461126e-01
3.050450097847358322e+00 -1.529890771648263759e-01
3.061193737769080325e+00 -1.531111732535802294e-01
3.071937377690802329e+00 -1.532127899229586698e-01
3.082681017612524776e+00 -1.532941703653779852e-01
3.093424657534246780e+00 -1.533555566240461798e-01
3.104168297455968784e+00 -1.533971895892321802e-01
3.114911937377690787e+00 -1.534193089940906196e-01
3.125655577299412791e+00 -1.534221534100574658e-01
3.136399217221135238e+00 -1.534059602418362533e-01
3.147142857142857242e+00 -1.533709657219952394e-01
3.157886497064579245e+00 -1.533174049052010990e-01
3.168630136986301693e+00 -1.532455116621156133e-01
3.179373776908023697e+00 -1.531555186729831874e-01
3.190117416829745700e+00 -1.530476574209419516e-01
3.200861056751467704e+00 -1.529221581850897793e-01
3.211604696673189707e+00 -1.527792500333403358e-01
3.222348336594912155e+00 -1.526191608151048484e-01
3.233091976516634158e+00 -1.524421171538363762e-01
3.243835616438356162e+00 -1.522483444394742147e-01
3.254579256360078610e+00 -1.520380668208269892e-01
3.265322896281800613e+00 -1.518115071979340702e-01
3.276066536203522617e+00 -1.515688872144433375e-01
3.286810176125244620e+00 -1.513104272500452874e-01
3.297553816046966624e+00 -1.510363464130023980e-01
3.308297455968689071e+00 -1.507468625328121925e-01
3.319041095890411075e+00 -1.504421921530419703e-01
3.329784735812133079e+00 -1.501225505243726221e-01
3.340528375733855526e+00 -1.497881515978874145e-01
3.351272015655577530e+00 -1.494392080186411620e-01
3.362015655577299533e+00 -1.490759311195428150e-01
3.372759295499021537e+00 -1.486985309155841040e-01
3.383502935420743540e+00 -1.483072160984443555e-01
3.394246575342465988e+00 -1.479021940315007055e-01
3.404990215264187992e+00 -1.474836707452694129e-01
3.415733855185909995e+00 -1.470518509333033630e-01
3.426477495107632443e+00 -1.466069379485692159e-01
3.437221135029354446e+00 -1.461491338003222951e-01
3.447964774951076450e+00 -1.456786391514989787e-01
3.458708414872798453e+00 -1.451956533166409991e-01
3.469452054794520457e+00 -1.447003742603650278e-01
3.480195694716242905e+00 -1.441929985963878724e-01
3.490939334637964908e+00 -1.436737215871151385e-01
3.501682974559686912e+00 -1.431427371437988261e-01
3.512426614481409359e+00 -1.426002378272666349e-01
3.523170254403131363e+00 -1.420464148492234790e-01
3.533913894324853366e+00 -1.414814580741223515e-01
3.544657534246575370e+00 -1.409055560216002922e-01
3.555401174168297374e+00 -1.403188958694724375e-01
3.566144814090019821e+00 -1.397216634572734095e-01
3.576888454011741825e+00 -1.391140432903360535e-01
3.587632093933463828e+00 -1.384962185443913141e-01
3.598375733855186276e+00 -1.378683710706739840e-01
3.609119373776908279e+00 -1.372306814015164522e-01
3.619863013698630283e+00 -1.365833287564085508e-01
3.630606653620352287e+00 -1.359264910485028510e-01
3.641350293542074290e+00 -1.352603448915404849e-01
3.652093933463796738e+00 -1.345850656071725937e-01
3.662837573385518741e+00 -1.339008272326499271e-01
3.673581213307240745e+00 -1.332078025288525591e-01
3.684324853228963192e+00 -1.325061629886303549e-01
3.695068493150685196e+00 -1.317960788454233811e-01
3.705812133072407200e+00 -1.310777190821310056e-01
3.716555772994129203e+00 -1.303512514401972133e-01
3.727299412915851207e+00 -1.296168424288802745e-01
3.738043052837573654e+00 -1.288746573346724045e-01
3.748786692759295658e+00 -1.281248602308366624e-01
3.759530332681017661e+00 -1.273676139870278667e-01
3.770273972602740109e+00 -1.266030802789629151e-01
3.781017612524462113e+00 -1.258314195981082018e-01
3.791761252446184116e+00 -1.250527912613504655e-01
3.802504892367906120e+00 -1.242673534206185371e-01
3.813248532289628123e+00 -1.234752630724247208e-01
3.823992172211350571e+00 -1.226766760672934053e-01
3.834735812133072574e+00 -1.218717471190476354e-01
3.845479452054794578e+00 -1.210606298139235149e-01
3.856223091976517026e+00 -1.202434766194847571e-01
3.866966731898239029e+00 -1.194204388933103461e-01
3.877710371819961033e+00 -1.185916668914289429e-01
3.888454011741683036e+00 -1.177573097764766930e-01
3.899197651663405040e+00 -1.169175156255553016e-01
3.909941291585127487e+00 -1.160724314377689775e-01
3.920684931506849491e+00 -1.152222031414213976e-01
3.931428571428571495e+00 -1.143669756008545146e-01
3.942172211350293942e+00 -1.135068926229132746e-01
3.952915851272015946e+00 -1.126420969630227698e-01
3.963659491193737949e+00 -1.117727303308645309e-01
3.974403131115459953e+00 -1.108989333956429402e-01
3.985146771037181956e+00 -1.100208457909322840e-01
3.995890410958904404e+00 -1.091386061190989382e-01
4.006634050880626852e+00 -1.082523519552935493e-01
4.017377690802348411e+00 -1.073622198510109649e-01
4.028121330724070859e+00 -1.064683453372172184e-01
4.038864970645792418e+00 -1.055708629270453308e-01
4.049608610567514866e+00 -1.046699061180619006e-01
4.060352250489237314e+00 -1.037656073941111839e-01
4.071095890410958873e+00 -1.028580982267419675e-01
4.081839530332681321e+00 -1.019475090762260866e-01
4.092583170254403768e+00 -1.010339693921799009e-01
4.103326810176125328e+00 -1.001176076137987592e-01
4.114070450097847775e+00 -9.919855116971887377e-02
4.124814090019569335e+00 -9.827692647752167554e-02
4.135557729941291782e+00 -9.735285894289513742e-02
4.146301369863014230e+00 -9.642647295847210642e-02
4.157045009784735790e+00 -9.549789190236135372e-02
4.167788649706458237e+00 -9.456723813639303367e-02
4.178532289628179797e+00 -9.363463300409910484e-02
4.189275929549902244e+00 -9.270019682844855835e-02
4.200019569471624692e+00 -9.176404890936243341e-02
4.210763209393346251e+00 -9.082630752102907601e-02
4.221506849315068699e+00 -8.988708990904478724e-02
4.232250489236791147e+00 -8.894651228740345361e-02
4.242994129158512706e+00 -8.800468983535944534e-02
