# time d(t)
1.000000000000000021e-02 9.927710259890961675e-01
2.074363992172211651e-02 9.694327463013543422e-01
3.148727984344423109e-02 9.315519274899554114e-01
4.223091976516634566e-02 8.814814121382916756e-01
5.297455968688846023e-02 8.219240375288179301e-01
6.371819960861056786e-02 7.556112529603056238e-01
7.446183953033268244e-02 6.850963968829756334e-01
8.520547945205479701e-02 6.126399322321104401e-01
9.594911937377691158e-02 5.401543671728851193e-01
1.066927592954990262e-01 4.691896245621845485e-01
1.174363992172211407e-01 4.009477983185331107e-01
1.281800391389432692e-01 3.363170306193860593e-01
1.389236790606653837e-01 2.759145395860135852e-01
1.496673189823874983e-01 2.201312092589051417e-01
1.604109589041096129e-01 1.691733059954719787e-01
1.711545988258317275e-01 1.230994983138631732e-01
1.818982387475538420e-01 8.185301504001678274e-02
1.926418786692759566e-01 4.528944999184453257e-02
2.033855185909980712e-01 1.320067420051389967e-02
2.141291585127201857e-01 -1.466494384074247190e-02
2.248727984344423003e-01 -3.858589145432759354e-02
2.356164383561644149e-01 -5.885419713631147992e-02
2.463600782778865295e-01 -7.576507521855625760e-02
2.571037181996086440e-01 -8.960914920097086400e-02
2.678473581213307586e-01 -1.006669493980446861e-01
2.785909980430528732e-01 -1.092054284977787698e-01
2.893346379647749878e-01 -1.154761964398207247e-01
3.000782778864971023e-01 -1.197150916865060977e-01
3.108219178082192169e-01 -1.221426603458877908e-01
3.215655577299413315e-01 -1.229651071151241087e-01
3.323091976516634460e-01 -1.223753583460746308e-01
3.430528375733855606e-01 -1.205540668359703915e-01
3.537964774951076752e-01 -1.176704526853083188e-01
3.645401174168297898e-01 -1.138828392925830407e-01
3.752837573385519043e-01 -1.093389787912079497e-01
3.860273972602740189e-01 -1.041763873987697070e-01
3.967710371819961335e-01 -9.852251383261846629e-02
4.075146771037182480e-01 -9.249457970780566862e-02
4.182583170254403626e-01 -8.619957993542970431e-02
4.290019569471624772e-01 -7.973466178499367951e-02
4.397455968688845918e-01 -7.318718455319787874e-02
4.504892367906067063e-01 -6.663435063316276719e-02
4.612328767123288209e-01 -6.014345743060731109e-02
4.719765166340509355e-01 -5.377285499243433103e-02
4.827201565557730500e-01 -4.757223768195750074e-02
4.934637964774951646e-01 -4.158218071417895539e-02
5.042074363992172792e-01 -3.583465796008269283e-02
5.149510763209393938e-01 -3.035478721655099701e-02
5.256947162426615083e-01 -2.516170696169243645e-02
5.364383561643836229e-01 -2.026793069716564116e-02
5.471819960861057375e-01 -1.567949294599925436e-02
5.579256360078278520e-01 -1.139817032059120896e-02
5.686692759295499666e-01 -7.423438745483483189e-03
5.794129158512720812e-01 -3.751931477584208741e-03
5.901565557729941958e-01 -3.761947884705061675e-04
6.009001956947163103e-01 2.714104845163610707e-03
6.116438356164384249e-01 5.529175157128916537e-03
6.223874755381605395e-01 8.078051571268020023e-03
6.331311154598826541e-01 1.037067377766506641e-02
6.438747553816047686e-01 1.241968282081238641e-02
6.546183953033268832e-01 1.423880911541427520e-02
6.653620352250489978e-01 1.583956180456860124e-02
6.761056751467711123e-01 1.723051271281410279e-02
6.868493150684932269e-01 1.842019282015442891e-02
6.975929549902153415e-01 1.941986477900514707e-02
7.083365949119374561e-01 2.024249085790535974e-02
7.190802348336595706e-01 2.089904470096933323e-02
7.298238747553816852e-01 2.139671255386531648e-02
7.405675146771037998e-01 2.174125287949327245e-02
7.513111545988259143e-01 2.194081263387619857e-02
7.620547945205480289e-01 2.200680491455641111e-02
7.727984344422701435e-01 2.195078680741552671e-02
7.835420743639922581e-01 2.178079302346331084e-02
7.942857142857143726e-01 2.150130195951412831e-02
8.050293542074364872e-01 2.111703904798940823e-02
8.157729941291586018e-01 2.063654436768767170e-02
8.265166340508807163e-01 2.007168756059214687e-02
8.372602739726028309e-01 1.943361766170041693e-02
8.480039138943249455e-01 1.872915796074899400e-02
8.587475538160470601e-01 1.796114339742185817e-02
8.694911937377691746e-01 1.713256564845563878e-02
8.802348336594912892e-01 1.625081461188921869e-02
8.909784735812134038e-01 1.532791863958130225e-02
9.017221135029355183e-01 1.437629133960600242e-02
9.124657534246576329e-01 1.340384484875664466e-02
9.232093933463797475e-01 1.241287328822248369e-02
9.339530332681018621e-01 1.140346088230523823e-02
9.446966731898239766e-01 1.037839841500921671e-02
9.554403131115460912e-01 9.345833703401879716e-03
9.661839530332682058e-01 8.317725633090524220e-03
9.769275929549903204e-01 7.305072226446935983e-03
9.876712328767124349e-01 6.313443735053964924e-03
9.984148727984345495e-01 5.342517852523151652e-03
1.009158512720156553e+00 4.390089500413399751e-03
1.019902152641878779e+00 3.457085540426417091e-03
1.030645792563601004e+00 2.549530725462491234e-03
1.041389432485323008e+00 1.676495571646531612e-03
1.052133072407045011e+00 8.461305264384726263e-04
1.062876712328767237e+00 6.244492486957114693e-05
1.073620352250489463e+00 -6.754530735138754467e-04
1.084363992172211466e+00 -1.371087130319706849e-03
1.095107632093933470e+00 -2.026485607886810512e-03
1.105851272015655695e+00 -2.639205367897645444e-03
1.116594911937377921e+00 -3.203145871171048185e-03
1.127338551859099924e+00 -3.712624738617196357e-03
1.138082191780821928e+00 -4.166227622601905572e-03
1.148825831702544154e+00 -4.567356637002783701e-03
1.159569471624266379e+00 -4.921525286603483512e-03
1.170313111545988383e+00 -5.232790900007881774e-03
1.181056751467710386e+00 -5.501436162657660084e-03
1.191800391389432612e+00 -5.723713503623563056e-03
1.202544031311154837e+00 -5.893928045169761695e-03
1.213287671232876841e+00 -6.008512684517693971e-03
1.224031311154598844e+00 -6.070002489454591997e-03
1.234774951076321070e+00 -6.087721350146227048e-03
1.245518590998043296e+00 -6.073848754998502700e-03
1.256262230919765299e+00 -6.037200660481292433e-03
1.267005870841487303e+00 -5.978957652048363242e-03
1.277749510763209528e+00 -5.893003692225621398e-03
1.288493150684931754e+00 -5.770232037648139953e-03
1.299236790606653758e+00 -5.604029953547479646e-03
1.309980430528375761e+00 -5.394406168613386302e-03
1.320724070450097987e+00 -5.149597017988218235e-03
1.331467710371820212e+00 -4.884630311797697952e-03
1.342211350293542216e+00 -4.616542624795312230e-03
1.352954990215264219e+00 -4.357468443353799611e-03
1.363698630136986445e+00 -4.109167593895848673e-03
1.374442270058708671e+00 -3.862729437547138787e-03
1.385185909980430674e+00 -3.603986907739079211e-03
1.395929549902152678e+00 -3.321364163012035554e-03
1.406673189823874903e+00 -3.011823478408723938e-03
1.417416829745597129e+00 -2.682474759499066299e-03
1.428160469667319132e+00 -2.348029224889844769e-03
1.438904109589041136e+00 -2.025830565774991692e-03
1.449647749510763362e+00 -1.730406361829227042e-03
1.460391389432485587e+00 -1.468963213209372679e-03
1.471135029354207591e+00 -1.238914576578684134e-03
1.481878669275929594e+00 -1.028687510684157857e-03
1.492622309197651820e+00 -8.225457099062208777e-04
1.503365949119374045e+00 -6.079141839449108244e-04
1.514109589041096049e+00 -3.812988544977040069e-04
1.524853228962818052e+00 -1.493558030765440082e-04
1.535596868884540278e+00 7.492849923881449853e-05
1.546340508806262504e+00 2.779715580267959536e-04
1.557084148727984507e+00 4.501678309817778697e-04
1.567827788649706511e+00 5.880930113286079010e-04
1.578571428571428736e+00 6.946272577379012953e-04
1.589315068493150962e+00 7.775646081213118902e-04
1.600058708414872966e+00 8.470987652486548216e-04
1.610802348336594969e+00 9.126500792643186177e-04
1.621545988258317195e+00 9.797858535458892938e-04
1.632289628180039420e+00 1.048275419514171653e-03
1.643033268101761424e+00 1.112442133039210235e-03
1.653776908023483427e+00 1.164332556717445058e-03
1.664520547945205653e+00 1.198390928309184212e-03
1.675264187866927879e+00 1.214615221996451005e-03
1.686007827788649882e+00 1.217898507784619935e-03
1.696751467710371886e+00 1.214362530669831075e-03
1.707495107632094111e+00 1.207779101842350496e-03
1.718238747553816337e+00 1.198358329416346693e-03
1.728982387475538340e+00 1.183737073154019111e-03
1.739726027397260344e+00 1.160704849744574651e-03
1.750469667318982570e+00 1.126665498474045029e-03
1.761213307240704795e+00 1.080718543688618258e-03
1.771956947162426799e+00 1.024506423826265647e-03
1.782700587084148802e+00 9.626985070059697639e-04
1.793444227005871028e+00 9.027203511680682337e-04
1.804187866927593253e+00 8.533705585620293081e-04
1.814931506849315257e+00 8.222506736107410355e-04
1.825675146771037261e+00 8.124476994469631260e-04
1.836418786692759486e+00 8.197072311559684210e-04
1.847162426614481712e+00 8.320028043046290636e-04
1.857906066536203715e+00 8.328663126997164125e-04
1.868649706457925719e+00 8.076016034286843210e-04
1.879393346379647944e+00 7.491718016713083033e-04
1.890136986301370170e+00 6.606700643903026891e-04
1.900880626223092174e+00 5.539289414817237175e-04
1.911624266144814177e+00 4.460905190172308383e-04
1.922367906066536403e+00 3.557909557081376630e-04
1.933111545988258628e+00 2.992850250431914705e-04
1.943855185909980632e+00 2.865185373941367148e-04
1.954598825831702635e+00 3.178974111599992586e-04
1.965342465753424861e+00 3.829681713417380220e-04
1.976086105675147087e+00 4.618669233188805122e-04
1.986829745596869090e+00 5.295878327572921436e-04
1.997573385518591094e+00 5.622343135894482431e-04
2.008317025440313319e+00 5.436679508537082270e-04
2.019060665362035323e+00 4.705989200768581496e-04
2.029804305283757326e+00 3.543184561724521393e-04
2.040547945205479330e+00 2.180765556748065059e-04
2.051291585127201778e+00 9.061357685253846857e-05
2.062035225048923781e+00 -1.892744189122639990e-06
2.072778864970645785e+00 -4.232692164481747886e-05
2.083522504892367788e+00 -2.542746232671574198e-05
2.094266144814089792e+00 4.287481571300327761e-05
2.105009784735812239e+00 1.475628468463591040e-04
2.115753424657534243e+00 2.666974714844511834e-04
2.126497064579256246e+00 3.742316058190114816e-04
2.137240704500978694e+00 4.446378460076941350e-04
2.147984344422700698e+00 4.588864604200117788e-04
2.158727984344422701e+00 4.096244887293956920e-04
2.169471624266144705e+00 3.035394669140392470e-04
2.180215264187866708e+00 1.602173398100062928e-04
2.190958904109589156e+00 7.837192245518666053e-06
2.201702544031311160e+00 -1.233942650383638192e-04
2.212446183953033163e+00 -2.085182152994843072e-04
2.223189823874755611e+00 -2.337422535137102136e-04
2.233933463796477614e+00 -1.992250080564879626e-04
2.244677103718199618e+00 -1.180226733167831499e-04
2.255420743639921621e+00 -1.177367610768766907e-05
2.266164383561643625e+00 9.522036853832236357e-05
2.276908023483366073e+00 1.813625975274317655e-04
2.287651663405088076e+00 2.309993960981444254e-04
2.298395303326810080e+00 2.354289176651985869e-04
2.309138943248532527e+00 1.928319649681358848e-04
2.319882583170254531e+00 1.082615520397301031e-04
2.330626223091976534e+00 -6.359562984929659783e-06
2.341369863013698538e+00 -1.334460556171205106e-04
2.352113502935420541e+00 -2.531552647856835300e-04
2.362857142857142989e+00 -3.482441743096705879e-04
2.373600782778864993e+00 -4.080786568561125031e-04
2.384344422700586996e+00 -4.299857767050349481e-04
2.395088062622309444e+00 -4.181610590650378643e-04
2.405831702544031447e+00 -3.815477218295045187e-04
2.416575342465753451e+00 -3.315613837106897062e-04
2.427318982387475454e+00 -2.797107977980197216e-04
2.438062622309197458e+00 -2.353506221540313927e-04
2.448806262230919906e+00 -2.043474136408394764e-04
2.459549902152641909e+00 -1.891800235793489782e-04
2.470293542074363913e+00 -1.900589780133765856e-04
2.481037181996086360e+00 -2.060999592153899853e-04
2.491780821917808364e+00 -2.358909373886563274e-04
2.502524461839530368e+00 -2.773956413985799148e-04
2.513268101761252371e+00 -3.274980725131993982e-04
2.524011741682974375e+00 -3.817165439597694694e-04
2.534755381604696822e+00 -4.347233556454945316e-04
2.545499021526418826e+00 -4.818395954955746914e-04
2.556242661448140829e+00 -5.206496737195694807e-04
2.566986301369863277e+00 -5.513118909219052273e-04
2.577729941291585281e+00 -5.748758687423707664e-04
2.588473581213307284e+00 -5.904701885940457111e-04
2.599217221135029288e+00 -5.933048188920566051e-04
2.609960861056751291e+00 -5.751996838910449026e-04
2.620704500978473739e+00 -5.278759245455502767e-04
2.631448140900195742e+00 -4.474033419805589144e-04
2.642191780821917746e+00 -3.373545756073481313e-04
2.652935420743640194e+00 -2.091895595526610475e-04
2.663679060665362197e+00 -8.025503828100253700e-05
2.674422700587084201e+00 2.937358337265146035e-05
2.685166340508806204e+00 1.006032946839520572e-04
2.695909980430528208e+00 1.194903457830425353e-04
2.706653620352250655e+00 8.105774005586112245e-05
2.717397260273972659e+00 -8.857932471832413244e-06
2.728140900195694663e+00 -1.347581876150468567e-04
2.738884540117417110e+00 -2.750510428510958877e-04
2.749628180039139114e+00 -4.064148765426925033e-04
2.760371819960861117e+00 -5.075165036286707334e-04
2.771115459882583121e+00 -5.614443521173403040e-04
2.781859099804305124e+00 -5.569136265215633881e-04
2.792602739726027572e+00 -4.886445182939834616e-04
2.803346379647749576e+00 -3.574469585778881605e-04
2.814090019569471579e+00 -1.705675165856492524e-04
2.824833659491194027e+00 5.752066672925264327e-05
2.835577299412916030e+00 3.046201710386264253e-04
2.846320939334638034e+00 5.420228911570030856e-04
2.857064579256360037e+00 7.383049286947887795e-04
2.867808219178082041e+00 8.650271110847669110e-04
2.878551859099804489e+00 9.024658280061085289e-04
2.889295499021526492e+00 8.435253388874688939e-04
2.900039138943248496e+00 6.949297832577065780e-04
2.910782778864970943e+00 4.758847772198422361e-04
2.921526418786692947e+00 2.151104043379497243e-04
2.932270058708414950e+00 -5.278575784294796592e-05
2.943013698630136954e+00 -2.912068324823766162e-04
2.953757338551858957e+00 -4.659944179492681959e-04
2.964500978473581405e+00 -5.504563451160070101e-04
2.975244618395303409e+00 -5.299756457226133125e-04
2.985988258317025412e+00 -4.044689515760926122e-04
2.996731898238747860e+00 -1.878102522833722859e-04
3.007475538160469863e+00 9.492375927613302738e-05
3.018219178082191867e+00 4.107991115182649407e-04
3.028962818003913871e+00 7.223016357816363850e-04
3.039706457925635874e+00 9.910344159710228300e-04
3.050450097847358322e+00 1.182225137761779270e-03
3.061193737769080325e+00 1.269481823864311012e-03
3.071937377690802329e+00 1.238759253398726348e-03
3.082681017612524776e+00 1.090794742311530785e-03
3.093424657534246780e+00 8.416090542676188261e-04
3.104168297455968784e+00 5.207364380698649388e-04
3.114911937377690787e+00 1.670803642144081508e-04
3.125655577299412791e+00 -1.770943354596286716e-04
3.136399217221135238e+00 -4.728213972681892703e-04
3.147142857142857242e+00 -6.900747578984353561e-04
3.157886497064579245e+00 -8.108692581641830429e-04
3.168630136986301693e+00 -8.293741932606291979e-04
3.179373776908023697e+00 -7.500597204776811733e-04
3.190117416829745700e+00 -5.854738432429680561e-04
3.200861056751467704e+00 -3.545287465894910806e-04
3.211604696673189707e+00 -8.116498123474894140e-05
3.222348336594912155e+00 2.070988944475986846e-04
3.233091976516634158e+00 4.810544905226012352e-04
3.243835616438356162e+00 7.122018557455646673e-04
3.254579256360078610e+00 8.754628941856602235e-04
3.265322896281800613e+00 9.517435714484222308e-04
3.276066536203522617e+00 9.298759960578296783e-04
3.286810176125244620e+00 8.078774578468947594e-04
3.297553816046966624e+00 5.938650416789338030e-04
3.308297455968689071e+00 3.067252906200504739e-04
3.319041095890411075e+00 -2.423831729165774800e-05
3.329784735812133079e+00 -3.619989146267036241e-04
3.340528375733855526e+00 -6.673554504406053979e-04
3.351272015655577530e+00 -9.060152236192441392e-04
3.362015655577299533e+00 -1.054641564377591361e-03
3.372759295499021537e+00 -1.103847368673953810e-03
3.383502935420743540e+00 -1.057847116029800782e-03
3.394246575342465988e+00 -9.317494564897850452e-04
3.404990215264187992e+00 -7.475532746562951877e-04
3.415733855185909995e+00 -5.295857488342494432e-04
3.426477495107632443e+00 -3.002734826601263199e-04
3.437221135029354446e+00 -7.743889654785204412e-05
3.447964774951076450e+00 1.261345175748377473e-04
3.458708414872798453e+00 3.013066771839309922e-04
3.469452054794520457e+00 4.407037950586096316e-04
3.480195694716242905e+00 5.376337040264899184e-04
3.490939334637964908e+00 5.863006751090377860e-04
3.501682974559686912e+00 5.830367627930137502e-04
3.512426614481409359e+00 5.277446687343872230e-04
3.523170254403131363e+00 4.245978198233690500e-04
3.533913894324853366e+00 2.815276014848870742e-04
3.544657534246575370e+00 1.089847900106876989e-04
3.555401174168297374e+00 -8.107239989222339213e-05
3.566144814090019821e+00 -2.756163189213167762e-04
3.576888454011741825e+00 -4.608963363010989750e-04
3.587632093933463828e+00 -6.231780676399523980e-04
3.598375733855186276e+00 -7.498294976361962816e-04
3.609119373776908279e+00 -8.305123547687971773e-04
3.619863013698630283e+00 -8.583241257789001434e-04
3.630606653620352287e+00 -8.305886627770730753e-04
3.641350293542074290e+00 -7.488178065663285204e-04
3.652093933463796738e+00 -6.177309842876404708e-04
3.662837573385518741e+00 -4.439672937383187432e-04
3.673581213307240745e+00 -2.354686229057744492e-04
3.684324853228963192e+00 -2.001904923033050819e-06
3.695068493150685196e+00 2.437319810740919352e-04
3.705812133072407200e+00 4.856454150092640856e-04
3.716555772994129203e+00 7.053925756920200948e-04
3.727299412915851207e+00 8.848436690891479765e-04
3.738043052837573654e+00 1.008694272101687620e-03
3.748786692759295658e+00 1.066119998070490108e-03
3.759530332681017661e+00 1.051378265940364296e-03
3.770273972602740109e+00 9.639921000078963825e-04
3.781017612524462113e+00 8.088984418636257188e-04
3.791761252446184116e+00 5.962145444366327880e-04
3.802504892367906120e+00 3.401264438972486596e-04
3.813248532289628123e+00 5.709702324602154141e-05
3.823992172211350571e+00 -2.356937381897943474e-04
3.834735812133072574e+00 -5.209073164373079212e-04
3.845479452054794578e+00 -7.807468978949286785e-04
3.856223091976517026e+00 -9.966958378787630322e-04
3.866966731898239029e+00 -1.150106889240141940e-03
3.877710371819961033e+00 -1.223805633369747176e-03
3.888454011741683036e+00 -1.204346660987147197e-03
3.899197651663405040e+00 -1.084378881534727151e-03
3.909941291585127487e+00 -8.645304369231133221e-04
3.920684931506849491e+00 -5.542857345919325945e-04
3.931428571428571495e+00 -1.716747885344552574e-04
3.942172211350293942e+00 2.578647413883309995e-04
3.952915851272015946e+00 7.028629337837269441e-04
3.963659491193737949e+00 1.127298100481625726e-03
3.974403131115459953e+00 1.492765460283488905e-03
3.985146771037181956e+00 1.761939586793823077e-03
3.995890410958904404e+00 1.903087184672907529e-03
4.006634050880626852e+00 1.894653059759305409e-03
4.017377690802348411e+00 1.729023677682194754e-03
4.028121330724070859e+00 1.414863557860434641e-03
4.038864970645792418e+00 9.772615084127835462e-04
4.049608610567514866e+00 4.549321149543745927e-04
4.060352250489237314e+00 -1.052968861442082129e-04
4.071095890410958873e+00 -6.551317876559032685e-04
4.081839530332681321e+00 -1.150627325782801981e-03
4.092583170254403768e+00 -1.556014713672436997e-03
4.103326810176125328e+00 -1.845495766966978590e-03
4.114070450097847775e+00 -2.003578940216496455e-03
4.124814090019569335e+00 -2.024579959840915825e-03
4.135557729941291782e+00 -1.911613866969543839e-03
4.146301369863014230e+00 -1.675106995738021541e-03
4.157045009784735790e+00 -1.330930525754689918e-03
4.167788649706458237e+00 -8.987160506590404722e-04
4.178532289628179797e+00 -4.011640302374729766e-04
4.189275929549902244e+00 1.354000554045733289e-04
4.200019569471624692e+00 6.800561746419078778e-04
4.210763209393346251e+00 1.197357397545087800e-03
4.221506849315068699e+00 1.649385009505985366e-03
4.232250489236791147e+00 1.999515218493944178e-03
4.242994129158512706e+00 2.216666958731644804e-03
