# time d(t)
1.000000000000000021e-02 7.406476393721980189e-01
2.074363992172211651e-02 4.324212877631674612e-01
3.148727984344423109e-02 2.210317242441113272e-01
4.223091976516634566e-02 8.939872605805476713e-02
5.297455968688846023e-02 1.129093348118965189e-02
6.371819960861056786e-02 -3.161732576948542150e-02
7.446183953033268244e-02 -5.131212821360887216e-02
8.520547945205479701e-02 -5.655520192679059505e-02
9.594911937377691158e-02 -5.430069638739801891e-02
1.066927592954990262e-01 -4.841064075732124522e-02
1.174363992172211407e-01 -3.785034532968691717e-02
1.281800391389432692e-01 -3.089805381700986425e-02
1.389236790606653837e-01 -2.147246687915072699e-02
1.496673189823874983e-01 -1.494951604522580871e-02
1.604109589041096129e-01 -9.329595102958406980e-03
1.711545988258317275e-01 -4.627157902481956152e-03
1.818982387475538420e-01 5.299728679507006513e-04
1.926418786692759566e-01 -3.258824771066851003e-04
2.033855185909980712e-01 5.284372074035749607e-03
2.141291585127201857e-01 4.932780166178861794e-03
2.248727984344423003e-01 4.982699323488161761e-03
2.356164383561644149e-01 1.010208466059126994e-02
2.463600782778865295e-01 4.868153000165818811e-03
2.571037181996086440e-01 6.038767129568951494e-03
2.678473581213307586e-01 1.117901428646470366e-02
2.785909980430528732e-01 2.116446529042372536e-03
2.893346379647749878e-01 4.064067029895666872e-03
3.000782778864971023e-01 7.389280016187919735e-03
3.108219178082192169e-01 2.557881643186067470e-03
3.215655577299413315e-01 -2.622529772810806847e-03
3.323091976516634460e-01 4.710335687427713233e-03
3.430528375733855606e-01 2.085751892202624986e-03
3.537964774951076752e-01 -3.655136250581260838e-03
3.645401174168297898e-01 -2.637667033436077915e-03
3.752837573385519043e-01 7.006169857575233941e-04
3.860273972602740189e-01 2.191298033470089925e-03
3.967710371819961335e-01 -6.236479335326550882e-03
4.075146771037182480e-01 -4.325414120092624728e-03
4.182583170254403626e-01 -2.917412748371132837e-04
4.290019569471624772e-01 2.807948508713173363e-03
4.397455968688845918e-01 -1.699471386961862651e-03
4.504892367906067063e-01 -7.847280160370119842e-03
4.612328767123288209e-01 -1.663106034913009465e-03
4.719765166340509355e-01 5.448587462292437365e-03
4.827201565557730500e-01 1.814050543787512843e-03
4.934637964774951646e-01 -3.322683148328707710e-03
5.042074363992172792e-01 -5.854507284871063484e-03
5.149510763209393938e-01 -5.905548881138931614e-04
5.256947162426615083e-01 6.458320167193251464e-03
5.364383561643836229e-01 5.675715392897210873e-03
5.471819960861057375e-01 -5.972718013467227458e-03
5.579256360078278520e-01 -4.749308875153398363e-03
5.686692759295499666e-01 3.303370953993056344e-04
5.794129158512720812e-01 4.649785223731366796e-03
5.901565557729941958e-01 6.065063564462016069e-03
6.009001956947163103e-01 1.472889117747261823e-03
6.116438356164384249e-01 -5.900589944098868882e-03
6.223874755381605395e-01 -5.886996408520362746e-03
6.331311154598826541e-01 1.628183563280421716e-03
6.438747553816047686e-01 8.258688173734535579e-03
6.546183953033268832e-01 2.125664828735618957e-03
6.653620352250489978e-01 -9.645144231182390965e-04
6.761056751467711123e-01 -2.612277187171216548e-03
6.868493150684932269e-01 -6.446813745178202153e-03
6.975929549902153415e-01 -2.145559613560220000e-03
7.083365949119374561e-01 5.035471666117390110e-03
7.190802348336595706e-01 8.444532076566526810e-03
7.298238747553816852e-01 2.515231009463126614e-03
7.405675146771037998e-01 -5.779678037612583086e-03
7.513111545988259143e-01 -7.987675968634515983e-03
7.620547945205480289e-01 -1.612541102593937356e-03
7.727984344422701435e-01 8.190027609612266380e-04
7.835420743639922581e-01 2.803137927871897622e-03
7.942857142857143726e-01 9.072296596088770884e-03
8.050293542074364872e-01 4.037585687623803168e-03
8.157729941291586018e-01 -6.343993522311388612e-03
8.265166340508807163e-01 -8.496216570704498428e-03
8.372602739726028309e-01 -6.979486727262364937e-03
8.480039138943249455e-01 3.488272266410995855e-03
8.587475538160470601e-01 7.782499941966111029e-03
8.694911937377691746e-01 7.642379885706909216e-03
8.802348336594912892e-01 3.554094406468094039e-04
8.909784735812134038e-01 -2.741747685403130626e-03
9.017221135029355183e-01 -3.909785233597305384e-03
9.124657534246576329e-01 -7.969989004547782530e-03
9.232093933463797475e-01 -6.450964551665715717e-03
9.339530332681018621e-01 3.826362214431944242e-03
9.446966731898239766e-01 1.117783582965291463e-02
9.554403131115460912e-01 7.946901595709116722e-03
9.661839530332682058e-01 1.412739540798417645e-03
9.769275929549903204e-01 -5.376685670403957146e-03
9.876712328767124349e-01 -9.490557809447670509e-03
9.984148727984345495e-01 -4.291985517220400087e-03
1.009158512720156553e+00 -1.237275955846321935e-03
1.019902152641878779e+00 1.823590584248045059e-03
1.030645792563601004e+00 3.533570964723256776e-03
1.041389432485323008e+00 5.826974750757027248e-03
1.052133072407045011e+00 9.092438673984100730e-03
1.062876712328767237e+00 2.456991324722958975e-03
1.073620352250489463e+00 -8.178275786276976295e-03
1.084363992172211466e+00 -1.170508888338488672e-02
1.095107632093933470e+00 -5.230695343845441318e-03
1.105851272015655695e+00 5.074727246124855970e-04
1.116594911937377921e+00 4.086027092183816892e-03
1.127338551859099924e+00 6.528270661334654654e-03
1.138082191780821928e+00 7.536068590921454931e-03
1.148825831702544154e+00 2.181048914874255881e-03
1.159569471624266379e+00 -5.140444527037537834e-04
1.170313111545988383e+00 -1.875145496273976711e-03
1.181056751467710386e+00 -5.211729760287225552e-03
1.191800391389432612e+00 -8.583551039678645814e-03
1.202544031311154837e+00 -6.617232540269931892e-03
1.213287671232876841e+00 -2.986918217881099312e-03
1.224031311154598844e+00 8.464540709482371722e-03
1.234774951076321070e+00 1.495365647157011896e-02
1.245518590998043296e+00 7.005037871466557320e-03
1.256262230919765299e+00 -7.584898306677132114e-04
1.267005870841487303e+00 -4.290597985189307899e-03
1.277749510763209528e+00 -6.053448011315891268e-03
1.288493150684931754e+00 -6.194479524781458003e-03
1.299236790606653758e+00 -6.806615283063573683e-03
1.309980430528375761e+00 -2.724656447082125441e-03
1.320724070450097987e+00 1.431185461058129792e-03
1.331467710371820212e+00 3.867916824544590480e-03
1.342211350293542216e+00 5.651954089224495680e-03
1.352954990215264219e+00 9.932572114733289464e-03
1.363698630136986445e+00 8.979490979175283952e-03
1.374442270058708671e+00 1.015299339122647821e-03
1.385185909980430674e+00 -6.877962792941143787e-03
1.395929549902152678e+00 -1.316382957181398868e-02
1.406673189823874903e+00 -1.141213432572718393e-02
1.417416829745597129e+00 -5.824206822159228025e-03
1.428160469667319132e+00 5.444502652489670302e-03
1.438904109589041136e+00 7.739717220030747219e-03
1.449647749510763362e+00 3.343063597718329543e-03
1.460391389432485587e+00 5.473374674167184352e-03
1.471135029354207591e+00 7.365436572864311054e-03
1.481878669275929594e+00 3.903886123868985456e-03
1.492622309197651820e+00 -3.287429310572755796e-04
1.503365949119374045e+00 -4.647777299546104572e-03
1.514109589041096049e+00 -6.441685936442606564e-03
1.524853228962818052e+00 -7.373367356833655968e-03
1.535596868884540278e+00 -7.693066298911511135e-03
1.546340508806262504e+00 -7.572692658415616958e-03
1.557084148727984507e+00 7.380445354562173259e-04
1.567827788649706511e+00 9.416875731223703014e-03
1.578571428571428736e+00 1.358585373519692434e-02
1.589315068493150962e+00 1.044984977709478673e-02
1.600058708414872966e+00 3.823905823189259218e-03
1.610802348336594969e+00 -2.017154678932554877e-03
1.621545988258317195e+00 -7.154888617129963324e-03
1.632289628180039420e+00 -7.421409749881633690e-03
1.643033268101761424e+00 -3.932128426932537946e-03
1.653776908023483427e+00 -1.808061166142204725e-03
1.664520547945205653e+00 -3.766263844597110295e-03
1.675264187866927879e+00 -7.447772342097051280e-03
1.686007827788649882e+00 -2.335239406579069695e-03
1.696751467710371886e+00 7.352201184966312281e-03
1.707495107632094111e+00 7.234411324385505923e-03
1.718238747553816337e+00 7.379347306034561051e-03
1.728982387475538340e+00 8.604627396166289119e-03
1.739726027397260344e+00 6.230679445289879874e-03
1.750469667318982570e+00 9.157806687476062728e-04
1.761213307240704795e+00 -4.304770447657437459e-03
1.771956947162426799e+00 -1.157084915877576621e-02
1.782700587084148802e+00 -1.379068640168125415e-02
1.793444227005871028e+00 -8.249075460577074553e-03
1.804187866927593253e+00 -6.683543178184764158e-04
1.814931506849315257e+00 4.611185967528263520e-03
1.825675146771037261e+00 5.620962307451899190e-03
1.836418786692759486e+00 3.954936335803511775e-03
1.847162426614481712e+00 5.001089172346918216e-03
1.857906066536203715e+00 3.123699438640164736e-03
1.868649706457925719e+00 4.694858221246775778e-03
1.879393346379647944e+00 4.183916149126331273e-03
1.890136986301370170e+00 4.398908364982283097e-03
1.900880626223092174e+00 1.648995348727649076e-03
1.911624266144814177e+00 -6.644039330969604175e-03
1.922367906066536403e+00 -1.181846332765884404e-02
1.933111545988258628e+00 -1.123527141227179116e-02
1.943855185909980632e+00 -6.161528419761659776e-03
1.954598825831702635e+00 -2.148900329157420099e-03
1.965342465753424861e+00 -2.237785627295524880e-04
1.976086105675147087e+00 2.072857180576762742e-03
1.986829745596869090e+00 1.022472813965148893e-02
1.997573385518591094e+00 1.471896569649947147e-02
2.008317025440313319e+00 9.069073098851998180e-03
2.019060665362035323e+00 4.075210097138693907e-03
2.029804305283757326e+00 -1.131291860447633047e-03
2.040547945205479330e+00 -7.291098330778911403e-03
2.051291585127201778e+00 -7.750030449554960732e-03
2.062035225048923781e+00 -4.299446058827252268e-03
2.072778864970645785e+00 -5.104664922361624221e-04
2.083522504892367788e+00 -3.016404806230595179e-03
2.094266144814089792e+00 -4.958455163520818915e-03
2.105009784735812239e+00 -5.579585349437498655e-03
2.115753424657534243e+00 -3.863263554661308229e-03
2.126497064579256246e+00 -7.516044246668352347e-04
2.137240704500978694e+00 3.988767456954511390e-03
2.147984344422700698e+00 8.051177979096055606e-03
2.158727984344422701e+00 1.245976405659872388e-02
2.169471624266144705e+00 1.138938584636982679e-02
2.180215264187866708e+00 6.020722516395909593e-03
2.190958904109589156e+00 -8.271533024341316256e-04
2.201702544031311160e+00 -5.718574196619757508e-03
2.212446183953033163e+00 -7.508982077217741732e-03
2.223189823874755611e+00 -5.662987795797214119e-03
2.233933463796477614e+00 -8.052106072945180992e-03
2.244677103718199618e+00 -9.984479033714637949e-03
2.255420743639921621e+00 -5.866657780006103926e-03
2.266164383561643625e+00 -5.510838669326314316e-04
2.276908023483366073e+00 6.550734680506668274e-03
2.287651663405088076e+00 9.015990683415820231e-03
2.298395303326810080e+00 4.430212993405734621e-03
2.309138943248532527e+00 4.829575234584362691e-04
2.319882583170254531e+00 9.439530606164778541e-04
2.330626223091976534e+00 3.809400896702729977e-03
2.341369863013698538e+00 3.222281571255808733e-03
2.352113502935420541e+00 3.522256619147008487e-03
2.362857142857142989e+00 6.713331858217987461e-03
2.373600782778864993e+00 3.432984481919645718e-03
2.384344422700586996e+00 -4.552006563319116982e-03
2.395088062622309444e+00 -1.008683341349460132e-02
2.405831702544031447e+00 -9.538876534090405535e-03
2.416575342465753451e+00 -1.028350800451423297e-02
2.427318982387475454e+00 -7.038841005261905169e-03
2.438062622309197458e+00 -4.125131419476538337e-03
2.448806262230919906e+00 1.615143290966149269e-03
2.459549902152641909e+00 7.860330358488147595e-03
2.470293542074363913e+00 8.428250124206303207e-03
2.481037181996086360e+00 8.172679798934007894e-03
2.491780821917808364e+00 6.363946048993300401e-03
2.502524461839530368e+00 3.282172133656615590e-03
2.513268101761252371e+00 3.580303857393716746e-03
2.524011741682974375e+00 2.864449589873218661e-03
2.534755381604696822e+00 -5.064063226701421682e-04
2.545499021526418826e+00 -5.582701177037254457e-03
2.556242661448140829e+00 -7.266396861570234914e-03
2.566986301369863277e+00 -6.896263378881278480e-03
2.577729941291585281e+00 -2.048035503390467898e-03
2.588473581213307284e+00 2.585769165819023357e-03
2.599217221135029288e+00 1.389378195179252458e-03
2.609960861056751291e+00 -4.151627190191412714e-03
2.620704500978473739e+00 -8.105549687190476485e-03
2.631448140900195742e+00 -6.397102393317307539e-03
2.642191780821917746e+00 -3.327381620142497165e-03
2.652935420743640194e+00 3.439188772061600122e-03
2.663679060665362197e+00 9.056110320429881441e-03
2.674422700587084201e+00 9.345030715793109510e-03
2.685166340508806204e+00 9.975991616244388877e-03
2.695909980430528208e+00 1.106499722527035622e-02
2.706653620352250655e+00 5.678059988167866168e-03
2.717397260273972659e+00 -1.599396401972114773e-03
2.728140900195694663e+00 -7.546120322060622873e-03
2.738884540117417110e+00 -6.840166206583214899e-03
2.749628180039139114e+00 -5.392032924378687038e-03
2.760371819960861117e+00 -7.209443149666259695e-03
2.771115459882583121e+00 -8.165661642853141652e-03
2.781859099804305124e+00 -3.666272912100881735e-03
2.792602739726027572e+00 8.658173210374151387e-04
2.803346379647749576e+00 1.360568141544454259e-03
2.814090019569471579e+00 1.074328030658722893e-04
2.824833659491194027e+00 2.026881366015195599e-04
2.835577299412916030e+00 1.784255604719581050e-03
2.846320939334638034e+00 4.130249644620253777e-03
2.857064579256360037e+00 5.092596826608165178e-03
2.867808219178082041e+00 4.860509751567144293e-03
2.878551859099804489e+00 9.799288173960721878e-04
2.889295499021526492e+00 8.627846353443845368e-04
2.900039138943248496e+00 5.497422218566981426e-04
2.910782778864970943e+00 1.301439490095651066e-03
2.921526418786692947e+00 6.868306341930611666e-03
2.932270058708414950e+00 6.757013485410499204e-03
2.943013698630136954e+00 1.358067966100612181e-03
2.953757338551858957e+00 -5.842844615459367313e-03
2.964500978473581405e+00 -1.164065549711397300e-02
2.975244618395303409e+00 -1.495343089423953852e-02
2.985988258317025412e+00 -1.073395080622879631e-02
2.996731898238747860e+00 -4.308387643100340669e-03
3.007475538160469863e+00 4.482658647672873925e-04
3.018219178082191867e+00 3.421709880624617707e-03
3.028962818003913871e+00 4.884538467716612736e-03
3.039706457925635874e+00 7.518170968223115633e-03
3.050450097847358322e+00 8.378064066324585751e-03
3.061193737769080325e+00 5.721645193505416581e-03
3.071937377690802329e+00 4.719042769215684753e-03
3.082681017612524776e+00 1.879118702324819980e-03
3.093424657534246780e+00 -2.820848736725269481e-04
3.104168297455968784e+00 -1.916905989908734408e-03
3.114911937377690787e+00 7.433383735461063365e-04
3.125655577299412791e+00 1.432731395695878429e-03
3.136399217221135238e+00 -3.113592369271138069e-03
3.147142857142857242e+00 -5.057208443995800731e-03
3.157886497064579245e+00 -1.072548996954044266e-03
3.168630136986301693e+00 5.885915370287753611e-04
3.179373776908023697e+00 -1.560897903112183236e-03
3.190117416829745700e+00 -4.568357584817051009e-03
3.200861056751467704e+00 -5.979150051617697012e-03
3.211604696673189707e+00 -3.184346562963557073e-03
3.222348336594912155e+00 6.703358121354359260e-04
3.233091976516634158e+00 -7.779132817097283298e-04
3.243835616438356162e+00 -3.566924394512377156e-03
3.254579256360078610e+00 -2.506787277945565339e-03
3.265322896281800613e+00 3.296667391665679576e-04
3.276066536203522617e+00 4.910248161508440172e-03
3.286810176125244620e+00 8.662240798436462649e-03
3.297553816046966624e+00 1.312497350952345453e-02
3.308297455968689071e+00 1.306598444283522779e-02
3.319041095890411075e+00 7.362740105321238272e-03
3.329784735812133079e+00 2.534471386592639900e-04
3.340528375733855526e+00 -7.122597318240802243e-03
3.351272015655577530e+00 -1.109977138492331851e-02
3.362015655577299533e+00 -1.005490189886445486e-02
3.372759295499021537e+00 -6.900648086433170195e-03
3.383502935420743540e+00 -1.560133032069151810e-03
3.394246575342465988e+00 -9.641544128070921645e-04
3.404990215264187992e+00 -1.155356451076656023e-03
3.415733855185909995e+00 -3.810596567447117260e-04
3.426477495107632443e+00 9.655256156667967960e-04
3.437221135029354446e+00 -1.095947741950445420e-03
3.447964774951076450e+00 1.137323186664621890e-03
3.458708414872798453e+00 2.655956754347177720e-03
3.469452054794520457e+00 -5.978823754282812288e-04
3.480195694716242905e+00 -1.221569254728772837e-03
3.490939334637964908e+00 -6.215389234763984440e-05
3.501682974559686912e+00 2.569916619835424954e-03
3.512426614481409359e+00 4.019782706921645743e-03
3.523170254403131363e+00 3.388294815620742414e-03
3.533913894324853366e+00 3.498477111013633886e-03
3.544657534246575370e+00 2.919636045493656344e-03
3.555401174168297374e+00 2.778109781704656261e-03
3.566144814090019821e+00 2.097594440668880660e-03
3.576888454011741825e+00 2.011452262740385816e-03
3.587632093933463828e+00 2.141125801739128878e-03
3.598375733855186276e+00 -7.002359483233247138e-04
3.609119373776908279e+00 -5.830586079036430627e-03
3.619863013698630283e+00 -8.334397654169104636e-03
3.630606653620352287e+00 -5.248054496768352409e-03
3.641350293542074290e+00 -4.285343753158367755e-03
3.652093933463796738e+00 -6.024135807818888078e-03
3.662837573385518741e+00 -9.665439016351851792e-03
3.673581213307240745e+00 -7.063904779504688418e-03
3.684324853228963192e+00 1.711082648886141488e-03
3.695068493150685196e+00 8.672121575909030183e-03
3.705812133072407200e+00 1.144402472406407488e-02
3.716555772994129203e+00 1.216948379578223181e-02
3.727299412915851207e+00 7.158562456350148033e-03
3.738043052837573654e+00 1.941509352545497903e-03
3.748786692759295658e+00 -1.436212248479875643e-03
3.759530332681017661e+00 -3.242452678995006322e-03
3.770273972602740109e+00 -5.293969596859176598e-03
3.781017612524462113e+00 -3.601292055585967548e-03
3.791761252446184116e+00 1.609167258240854805e-03
3.802504892367906120e+00 3.982424360278453805e-03
3.813248532289628123e+00 2.738544760861292247e-03
3.823992172211350571e+00 1.252356060706018813e-03
3.834735812133072574e+00 -5.149476022403742977e-04
3.845479452054794578e+00 -2.309967190429762680e-03
3.856223091976517026e+00 -2.370253735639370283e-03
3.866966731898239029e+00 -1.695239521921062436e-03
3.877710371819961033e+00 -1.813791491804056608e-03
3.888454011741683036e+00 -1.562828862937286779e-03
3.899197651663405040e+00 -4.457381112822078779e-03
3.909941291585127487e+00 -5.612095477335099503e-03
3.920684931506849491e+00 -3.374492942850194389e-03
3.931428571428571495e+00 -2.551485312331806289e-03
3.942172211350293942e+00 3.182953245460451094e-04
3.952915851272015946e+00 1.101121713220789547e-03
3.963659491193737949e+00 2.563879133379142611e-03
3.974403131115459953e+00 3.959811917219694874e-03
3.985146771037181956e+00 4.148425961669068886e-03
3.995890410958904404e+00 3.114540553203838050e-03
4.006634050880626852e+00 5.808152539157733669e-03
4.017377690802348411e+00 9.020100866473595644e-03
4.028121330724070859e+00 6.584903138629936113e-03
4.038864970645792418e+00 1.807113945620992916e-03
4.049608610567514866e+00 -9.031048497862556373e-04
4.060352250489237314e+00 -2.423235378885286572e-03
4.071095890410958873e+00 -5.310933863387001103e-03
4.081839530332681321e+00 -8.011192761350014596e-03
4.092583170254403768e+00 -5.981629161026905811e-03
4.103326810176125328e+00 -6.280175339833183115e-03
4.114070450097847775e+00 -5.256187429485069743e-03
4.124814090019569335e+00 -2.972223083103354892e-03
4.135557729941291782e+00 -4.116416941793084620e-04
4.146301369863014230e+00 4.591569612229568463e-03
4.157045009784735790e+00 9.065916678659862935e-03
4.167788649706458237e+00 8.696660294529149487e-03
4.178532289628179797e+00 2.555600670210203193e-03
4.189275929549902244e+00 -5.632953923610567806e-03
4.200019569471624692e+00 -1.000000620648443771e-02
4.210763209393346251e+00 -6.396621887746370243e-03
4.221506849315068699e+00 -9.940202376862100966e-04
4.232250489236791147e+00 1.531855317560819156e-03
4.242994129158512706e+00 2.493618466061595530e-03
